-1.700000000000000000e+01
2.513595855051175931e+01
5.255153888910847115e+01
5.153217429023393237e+01
2.208046147083955191e+01
-1.808483145858722452e+01
-6.124172204584058932e+01
-8.667143786618331092e+01
-8.666361453300889650e+01
-5.822604219195289943e+01
-1.208168937407551979e+01
3.204585878509691099e+01
5.543943720465841096e+01
5.439288480048094954e+01
2.691918515107773402e+01
-1.625449374676643188e+01
-5.840296562140822800e+01
-8.281067428234254635e+01
-8.077566290110890179e+01
-4.931610848285378523e+01
-1.016337752489960700e+01
3.195574412228009109e+01
5.832731071491745922e+01
5.825357064291765852e+01
2.975789434122900801e+01
-1.242415414796625051e+01
-5.256419094288344240e+01
-7.794988229274395053e+01
-7.788768275817794517e+01
-5.040615619666540681e+01
-8.245063229233133839e+00
3.186561578862604804e+01
5.821516065514003913e+01
6.011423306353199791e+01
3.359659029595682256e+01
-9.593811404220550898e+00
-5.272539675563370309e+01
-7.808906065145106368e+01
-7.699967286901761554e+01
-4.549618410686813519e+01
-3.326745263861198509e+00
3.877547501067993352e+01
6.710298826056386190e+01
6.597487330829368091e+01
3.943527426990155504e+01
-5.763464257594561602e+00
-4.888658180506457285e+01
-7.322820811257115281e+01
-7.311163199847466387e+01
-4.458619098698452632e+01
-1.408422405605936234e+00
4.068532301495601189e+01
6.799079476639815312e+01
6.983549262314264183e+01
4.027394751766853176e+01
-1.933111450195035497e+00
-4.104774483663106110e+01
-6.636732343026643832e+01
-6.522355891145227247e+01
-3.667617561059122266e+01
7.509906568661439685e+00
5.159516102792417769e+01
7.787858140781084160e+01
7.469609225397687169e+01
4.811261129381456669e+01
7.897248275814027885e+00
-3.420888459585334829e+01
-5.950640535876799220e+01
-5.333545237292303653e+01
-2.676613675133124204e+01
1.742824288200926119e+01
6.150499027599850876e+01
8.676634941991662231e+01
8.855667344663888230e+01
6.095126685283935331e+01
1.872761617820421876e+01
-2.236999982832504585e+01
-4.864545265238670169e+01
-4.244731114794087290e+01
-1.085607318292665369e+01
3.134658775743168135e+01
7.241481198552442322e+01
1.006541000377645503e+02
1.004172374469056450e+02
7.078991544916635803e+01
3.055799351466425406e+01
-1.253108927972601627e+01
-3.778446406552541958e+01
-3.555913400165336924e+01
-5.945983679188773685e+00
3.726494241783792916e+01
7.832462738276888103e+01
1.055418344963266009e+02
1.032777855004739536e+02
7.562855833713844333e+01
3.338838154279243753e+01
-9.692151695838067127e+00
-3.592343835269254981e+01
-3.467091969931396278e+01
-1.103586701403445147e+01
3.218330808603731441e+01
7.323443769390206626e+01
9.942955403048313201e+01
9.413831885294996482e+01
6.646719677100155366e+01
2.021878152008442342e+01
-2.485318582255357711e+01
-5.406237426851303951e+01
-5.278266700629437480e+01
-2.512572196149469406e+01
1.610168598473201129e+01
5.414424414499320903e+01
7.931725987501401676e+01
7.499883874983633802e+01
4.730583200489127904e+01
3.049194703917007310e+00
-4.201419040588775999e+01
-6.920127056774055063e+01
-6.789437468809606457e+01
-4.221554729572766007e+01
2.007733649932053055e-02
4.205404796199196937e+01
6.520495326458403440e+01
6.685934643651934550e+01
4.214446529282225384e+01
3.879622351539308234e+00
-3.617516419199404965e+01
-5.934012600527115211e+01
-5.500604151036385758e+01
-2.530534179103013415e+01
1.693848336378539798e+01
6.396385037072133173e+01
8.809263543373049288e+01
8.271984315825831402e+01
5.598309788867825887e+01
1.171006572005858004e+01
-2.733610592717444376e+01
-5.247893933615348061e+01
-5.011766623889744920e+01
-2.339510422185580296e+01
2.085690528888210693e+01
6.287365259685665819e+01
9.098030761685291168e+01
8.758033016017110128e+01
5.882173104619440096e+01
1.654052606643092815e+01
-2.449701435789005899e+01
-4.961770931560256770e+01
-4.822924763966324946e+01
-2.048483336281778477e+01
2.277534433393217483e+01
6.478345586592735117e+01
9.286797104819871151e+01
9.144080868722399202e+01
6.166036601895046232e+01
2.037100464744708006e+01
-2.065788823077504333e+01
-4.575643469901284277e+01
-4.334078447880603591e+01
-1.657452798870732735e+01
2.369380172089906722e+01
6.769326140329111752e+01
9.275562696185160405e+01
9.230127998421859559e+01
6.449900406035710887e+01
1.820150271971717260e+01
-2.381872629265035002e+01
-4.889511424196670930e+01
-4.245227552266374715e+01
-1.466418687450280700e+01
2.561227867156769378e+01
6.960307043412731787e+01
9.364327659172140272e+01
9.016174529577891406e+01
6.333764642363794195e+01
2.203202153966545040e+01
-2.097952729053441701e+01
-4.503374670025008442e+01
-4.356371953777738071e+01
-1.475380879538924894e+01
2.653077640752421473e+01
6.951288418342947750e+01
9.353092117152849028e+01
9.202220586633970356e+01
6.517629436182613745e+01
2.486256236351108129e+01
-1.914028997165301860e+01
-4.417233082986518156e+01
-4.167511529090400302e+01
-1.384339252675674992e+01
2.744929615014781987e+01
6.742270387598352954e+01
9.141856193479229375e+01
8.788266294013565982e+01
6.201494912775066837e+01
1.869312644725989614e+01
-2.130101308345703615e+01
-4.531086538703926436e+01
-4.178646154902916976e+01
-1.593293684422732959e+01
2.436783912059548740e+01
6.633253073636042529e+01
9.030620011482254483e+01
8.574311776118553041e+01
5.985361197401512356e+01
1.852371504668917268e+01
-2.346169537362838042e+01
-4.644934912824061257e+01
-4.389775707937825899e+01
-1.702244052365578142e+01
2.128640653979775266e+01
6.324236598890858829e+01
8.719383694470226942e+01
8.460357157328409983e+01
5.769228415299436108e+01
1.735432941734335444e+01
-2.662233559009773387e+01
-4.958778081018702721e+01
-4.800900064942966594e+01
-2.111190234115241893e+01
2.220499962843354069e+01
6.615221085773299592e+01
8.808147365727806744e+01
8.546402561998775127e+01
5.653096691682558372e+01
1.618497081450988873e+01
-2.578293248105362778e+01
-4.972615918986179651e+01
-4.712019102692664063e+01
-2.120132107308478453e+01
2.112361960692891216e+01
6.206206656668533839e+01
8.296911148514807621e+01
7.932448114460125055e+01
5.236966151737900788e+01
1.001564049321297034e+01
-3.094348479495705817e+01
-5.486448302452421899e+01
-5.123132697988954476e+01
-2.629069549609631906e+01
1.804226769543985398e+01
6.397193433935743201e+01
8.585675166064885389e+01
8.418493939016903482e+01
5.220836920626843636e+01
1.184633970820926585e+01
-3.210399128054731221e+01
-5.500275107171940903e+01
-5.334240727662742643e+01
-2.538002438711696840e+01
1.796094511384109182e+01
6.188181539906333484e+01
8.474439541584359858e+01
8.104540159945887012e+01
5.404709123481949007e+01
1.367706971395381821e+01
-2.826445068686538775e+01
-5.114096208929701959e+01
-4.745343068575216705e+01
-1.646930652337374568e+01
2.387965308171783363e+01
6.579171096883040093e+01
8.863204398251096450e+01
8.690586901495153427e+01
5.888582885407367229e+01
1.650783176461766999e+01
-2.642486176325182257e+01
-4.827911483541461735e+01
-4.156439597618999215e+01
-1.655854068241111321e+01
2.579839281833568521e+01
6.670162227137910804e+01
8.951969859212766778e+01
8.776634287883121033e+01
6.072458331475665005e+01
1.633862711404380264e+01
-2.558522325937802577e+01
-4.641720806855931158e+01
-3.967530191718925892e+01
-1.164772564208522176e+01
2.971716554266026122e+01
7.261155052912829433e+01
9.540736047586560176e+01
8.662682443296610302e+01
5.956335586728878440e+01
1.816945701576278793e+01
-2.674553392523624495e+01
-5.155524054755171903e+01
-4.978614727834094822e+01
-2.473686018059732916e+01
1.563597247331915163e+01
5.652149696416078939e+01
8.029503086457205541e+01
7.348731491890535494e+01
4.940214776175668021e+01
7.000322722968641997e+00
-3.290579251116763260e+01
-5.569321103156175212e+01
-5.389693082958383741e+01
-2.782594307649618415e+01
1.655481482859366338e+01
5.343146279822863676e+01
7.418271098875864311e+01
7.234781557785973405e+01
4.524096024789928094e+01
1.831225488492686626e+00
-3.706599776787608391e+01
-6.183111828012480515e+01
-5.900765134121922273e+01
-3.191497310868212267e+01
9.473693826416626607e+00
5.034144925273299975e+01
7.507040207859213865e+01
7.220832765069263814e+01
4.307979457511698484e+01
-1.337833435172841590e+00
-4.122614844641815779e+01
-6.396896105314353775e+01
-6.111830758392577678e+01
-3.300394905643221932e+01
9.392610684352209915e+00
4.925145754871350334e+01
6.995810536388039225e+01
6.706885237790658039e+01
4.191865199243484597e+01
-1.506852795930757161e+00
-4.038624329824862969e+01
-6.110673811091228913e+01
-6.422889832876515470e+01
-3.609286969940931300e+01
7.311566619587734905e+00
4.616148890683770389e+01
6.784582207405787813e+01
6.192939099963298588e+01
3.375753374849535504e+01
-1.067583134205332129e+01
-5.254628107520256464e+01
-7.624444821412159001e+01
-7.333942234719944508e+01
-4.518173381767569197e+01
3.230562848913534069e+00
5.107154454738254401e+01
8.473355343817937069e+01
9.378994475562005562e+01
7.559644109156747049e+01
4.515523217778168430e+01
2.029373947047350768e+01
1.361790987613171566e+01
3.555012158889404361e+01
8.472945980831417501e+01
1.411496005887227057e+02
1.849816256902332157e+02
1.996213006849024509e+02
1.876505148852125728e+02
1.494353752695016908e+02
9.098633901449073846e+01
3.513381958611571321e+01
-4.519662601678978930e+00
-2.456026529277956172e+01
-2.435928760233763413e+01
-9.313189450070105124e-01
2.589173355485840489e+01
4.250906504247598150e+01
4.151110262735564760e+01
1.727433752973925962e+01
-2.318250958144160379e+01
-5.902603948136457745e+01
-7.565716440950859578e+01
-6.867058176495280009e+01
-3.744797483094218649e+01
4.987805463266623107e+00
4.480186936030754907e+01
6.539684773873077006e+01
6.037170922056533584e+01
3.111332911930471212e+01
-1.135131235994494858e+01
-4.918583648550402643e+01
-7.179459430976226031e+01
-6.978082660080987409e+01
-3.953660065926860057e+01
1.906975028662049709e+00
4.171203432520186993e+01
6.228465000106572802e+01
6.223233590292964124e+01
3.195235128476929631e+01
-1.052006807141510691e+01
-4.934557018028365860e+01
-7.393195106530167493e+01
-7.089099857398917948e+01
-4.262516386953656422e+01
-3.173809034178003863e+00
3.862222966770163879e+01
6.317247305643391542e+01
6.009298391208849210e+01
3.479140527226167023e+01
-8.688775466700363381e+00
-4.750523932016793083e+01
-6.906923343946139937e+01
-6.700109645860440821e+01
-3.971366324443501128e+01
4.745454488953009253e+00
4.253245660551777263e+01
6.406031813133334651e+01
6.095365448522419882e+01
3.363049232744427286e+01
-7.857433297107698777e+00
-4.666484266007736892e+01
-6.720644019605921926e+01
-6.611111902925297557e+01
-3.880209756713757940e+01
1.664766811765581167e+00
3.944271635589328184e+01
6.594818645179526584e+01
6.181434885905058252e+01
3.646961369550770371e+01
-6.026040314446758472e+00
-4.482437895544183704e+01
-6.834357009940603689e+01
-6.422106506102738877e+01
-3.689046562131146345e+01
6.584129147485873190e+00
4.735301013557857175e+01
7.083607924336698147e+01
6.867506826979953871e+01
3.930877062115531828e+01
-1.194595271006217985e+00
-4.198384696218103329e+01
-6.448062191432484269e+01
-6.233093332953278320e+01
-3.397876619112628305e+01
8.503542708843564668e+00
5.026333916083502373e+01
7.472399773110541332e+01
7.453581395320884440e+01
4.814796434858779861e+01
5.636903080410198719e+00
-3.214324543673569679e+01
-5.361759440615156791e+01
-5.044072261089094411e+01
-2.406699806127115693e+01
2.042300870805376434e+01
6.017370464741503611e+01
8.461194313956312385e+01
8.239658714450544608e+01
5.398719612149588443e+01
1.246845598648152276e+01
-2.530257313607175362e+01
-4.675448634076128940e+01
-4.155043168175929225e+01
-1.415516001696846615e+01
2.834252835680684868e+01
6.708410781055140149e+01
9.349991669277126505e+01
9.325738907840717218e+01
6.482646718304663125e+01
2.430006469335539521e+01
-1.346182881769409434e+01
-3.289129648456970756e+01
-3.066005931933489492e+01
-3.243250843969523345e+00
3.726210286625634893e+01
7.599454986494833975e+01
9.838791961423972054e+01
9.611822098909074441e+01
6.966577877587126011e+01
2.813173044663196976e+01
-1.262101123966184701e+01
-3.302802360454636244e+01
-3.076960430137990343e+01
-4.331269328596336621e+00
3.518173344701082783e+01
7.090503202475684930e+01
9.127595312692929497e+01
8.697908411019821528e+01
5.950513214204973877e+01
1.696345449137166028e+01
-2.278011916058475350e+01
-5.016466646823241859e+01
-4.587906540622045526e+01
-1.941921425773723442e+01
1.910142130910183056e+01
5.581555550358139328e+01
7.716401845325192710e+01
7.383997967481688818e+01
4.434452852311508764e+01
-2.204761927960745993e+00
-4.593915133966994802e+01
-6.830122384374824662e+01
-6.698844141276534003e+01
-4.150708441883927691e+01
-1.978832337988421841e+00
3.572612151445209605e+01
5.705211681505295473e+01
5.470090891546053058e+01
2.618396916000840235e+01
-1.437291756744852478e+01
-5.109810653668995428e+01
-7.343769449980672448e+01
-7.409773110051686729e+01
-4.659487859996640680e+01
-6.059026285378897647e+00
3.063673126983150752e+01
5.294024943360018653e+01
4.856187306406926041e+01
2.002345529309961591e+01
-1.954101118379879054e+01
-5.725698351202949965e+01
-8.257407720572525989e+01
-7.720693324958151038e+01
-5.268259558975889689e+01
-1.013915932477801896e+01
2.654738598157423013e+01
4.982841752957285308e+01
4.742287335199077347e+01
2.086298816215561303e+01
-1.770904153429493277e+01
-5.841578102668495376e+01
-8.071037073143796192e+01
-7.631604664068755994e+01
-5.177023417749481382e+01
-1.021923024851164463e+01
2.645808686093046447e+01
4.971662232304509388e+01
4.828391100996820740e+01
2.070256900634135633e+01
-1.987700737685247887e+01
-5.957449784226704281e+01
-8.184657384750772735e+01
-8.342507005519031793e+01
-5.185779315306589865e+01
-1.529923784953515309e+01
2.636883511854972539e+01
5.060486503347939902e+01
4.714498726813349805e+01
2.054219906420778585e+01
-1.804490747001128881e+01
-5.773313272102866023e+01
-8.198268532513942830e+01
-8.053400227508423370e+01
-5.394527130700611650e+01
-1.437918092140179738e+01
2.527963196444357408e+01
4.949314687971451576e+01
4.700610335598848621e+01
2.138187957364340974e+01
-1.521274057295163828e+01
-5.589168442587693164e+01
-7.911870393618644925e+01
-7.664284208302044021e+01
-4.903266743050041754e+01
-9.459058258350310666e+00
2.919047860797356364e+01
5.138146907994899237e+01
4.886726050239150965e+01
2.122161177192495174e+01
-1.838050544550629439e+01
-5.805015172037275306e+01
-7.825462845317494498e+01
-7.575158826231873377e+01
-4.811998031539353349e+01
-7.538868655257337181e+00
3.210137625787055526e+01
5.426983285172909177e+01
5.172845993555617383e+01
2.406139689565571516e+01
-1.554820084817657388e+01
-5.620853336874285588e+01
-7.939045764930152416e+01
-7.586023959697297414e+01
-4.920720875421523033e+01
-9.618610907669388865e+00
3.201232612218186091e+01
5.315823941194218349e+01
5.058970288303245155e+01
2.290123618077009837e+01
-1.871582554212453431e+01
-5.636682813590758201e+01
-7.952619029845094190e+01
-7.396879487166715705e+01
-4.829435154017584608e+01
-1.069828381182679777e+01
2.992332940827491683e+01
5.304668997680034437e+01
4.845099057168789614e+01
1.974113086253134597e+01
-1.788337828922479744e+01
-5.852503478748037935e+01
-8.066182517521897921e+01
-7.707725287179421514e+01
-5.138140746717837715e+01
-1.277788616465591609e+01
2.683438732285650019e+01
5.593518576182835034e+01
4.831232422770778356e+01
2.058108217550304175e+01
-1.805085785204082072e+01
-5.668315208978300035e+01
-8.179736105490377440e+01
-7.618561238344774722e+01
-5.046837532984368124e+01
-1.285741676377714882e+01
2.574550107190119519e+01
4.882372798185691920e+01
4.617370507657624756e+01
1.942109135353373262e+01
-2.121826299384092351e+01
-5.884117880985758120e+01
-8.293279671353425897e+01
-8.029387219345984761e+01
-5.055525392352252823e+01
-1.193687440754883156e+01
2.665667186068636951e+01
4.971231785100108169e+01
4.403513434306429986e+01
1.726115962977131346e+01
-2.038559247863022961e+01
-5.999911371548174088e+01
-8.206813092787668040e+01
-8.040203108939962817e+01
-5.364204204429117340e+01
-1.401625789505933284e+01
2.456790089376444541e+01
4.960095658265345264e+01
4.789661325122319369e+01
2.310128823663449893e+01
-1.755284507115073822e+01
-5.615695557516504266e+01
-7.620336247544348396e+01
-7.551008785957827740e+01
-5.172873848897318538e+01
-1.309556602611923992e+01
2.947918937494151237e+01
5.248964538947768688e+01
4.975814302436561576e+01
2.294147840578419917e+01
-1.572001953687350984e+01
-5.431470315819228745e+01
-7.733849013451062149e+01
-7.061804129307894584e+01
-4.781534205516476277e+01
-6.174797601309125916e+00
3.239053850728097927e+01
5.537838548338666556e+01
5.261972488505357859e+01
2.578173136813800781e+01
-1.288711464207031199e+01
-5.047235523460734896e+01
-7.247351268413078174e+01
-6.972589017975501235e+01
-4.390185154121360966e+01
-4.253951421967698820e+00
3.630194949309461094e+01
5.926717807553703921e+01
5.748136005509196877e+01
3.062204835385819734e+01
-1.105412915375009675e+01
-5.062991057522522453e+01
-7.160842890413555040e+01
-6.783363331024071385e+01
-4.298826574626080799e+01
-7.333026290223689792e+00
3.021342353390251390e+01
5.215602437631179100e+01
4.634304975551656725e+01
2.046243059230987882e+01
-2.022106183971074600e+01
-5.978736795167839801e+01
-8.474323757515725219e+01
-7.894126947598108757e+01
-5.407458347024937240e+01
-1.741202100898398797e+01
2.312496183045230680e+01
4.504492559531475138e+01
4.120479520657509909e+01
1.730287931207548979e+01
-2.238791146856701531e+01
-6.194472613637263692e+01
-8.587793747864186855e+01
-8.104879746922460981e+01
-5.816080351391976677e+01
-1.649093438196150885e+01
2.303656558269156918e+01
4.593388294135418448e+01
4.406659762772079603e+01
1.814339574095944840e+01
-2.455467680973465150e+01
-6.510198390254579692e+01
-8.901252739684719018e+01
-8.715621608303514734e+01
-6.024692467883512137e+01
-2.156976521368321897e+01
1.794823598975894896e+01
4.282289762243210163e+01
3.692845823759904533e+01
1.198398110591312360e+01
-2.772135663342649892e+01
-6.425914002427974481e+01
-8.514700611287081244e+01
-8.326352411132194220e+01
-5.833294576739316284e+01
-1.764851230950207039e+01
1.785997424997533045e+01
4.171197084573313418e+01
3.679037825403397477e+01
9.824636633085845006e+00
-2.788794971072410434e+01
-6.741619327647192961e+01
-9.028137241065674345e+01
-8.937072034883914284e+01
-6.641886558281829878e+01
-2.672717447561295501e+01
1.177178156081943960e+01
3.060110381760846110e+01
2.565235889402212166e+01
2.665363547793104360e+00
-3.305445481353401505e+01
-6.157314243487523697e+01
-7.241562507500523793e+01
-5.947780359119215632e+01
-2.250468292922001723e+01
2.819424948095920058e+01
7.968365911893454268e+01
1.134902977435701814e+02
1.345144013737120758e+02
1.325061630744912691e+02
1.157791292853763707e+02
8.527001372387746869e+01
5.545023710842158948e+01
4.841522736514067304e+01
6.340960338844163857e+01
9.111576075229183402e+01
1.125956081201041030e+02
1.193795538282751352e+02
9.537650690839817003e+01
4.634703643677895712e+01
-1.838719618762907970e+01
-7.588672357771669397e+01
-1.076837846469323239e+02
-1.036916262772094939e+02
-7.267600543565588112e+01
-2.896263947038749365e+01
1.250762975924284426e+01
4.126887327551293083e+01
4.623867671250704348e+01
1.818798485738170001e+01
-1.855343000706730550e+01
-6.004335311803029640e+01
-8.581768912850871800e+01
-8.279836331649295289e+01
-5.576150820825267829e+01
-1.904094999673302624e+01
2.041972523038498721e+01
4.215825728820044560e+01
4.110091199958717567e+01
1.502900955813675488e+01
-2.471957094835185842e+01
-6.319987367636396414e+01
-8.295147512465341322e+01
-8.390498255187293353e+01
-5.684690373698851573e+01
-1.711916963730056906e+01
2.233189572666911005e+01
4.704770706835504512e+01
4.396321398228851507e+01
2.087011175999446522e+01
-1.988561778778895928e+01
-5.835628403291494237e+01
-7.908514142463238272e+01
-8.001148278342915887e+01
-5.693219083040132489e+01
-1.619729720358325764e+01
2.324414244034490906e+01
4.793722381709751801e+01
4.482558387237033770e+01
2.271129268298637527e+01
-1.805156930261326664e+01
-5.751258296880756404e+01
-7.921868681863939798e+01
-7.711786281217109718e+01
-5.201736829796249140e+01
-1.227533150794798011e+01
2.915646656271785986e+01
5.382680873464104820e+01
5.268802288066670059e+01
2.955255354622662267e+01
-9.217424270983894274e+00
-4.866876926610208187e+01
-7.235211009780913116e+01
-7.222412144004989898e+01
-4.710243495010190884e+01
-8.353271363718773657e+00
3.206886928418383320e+01
5.571646302026066166e+01
5.755053221708869415e+01
3.139389556789675595e+01
-8.383181472000252654e+00
-4.482484170780658417e+01
-6.548541005422985961e+01
-6.233025746996884209e+01
-3.818738959817011391e+01
1.568884414815265416e+00
4.298135179420178531e+01
6.560618787230112048e+01
6.441311309060127144e+01
3.723531996523713872e+01
-1.548839685717929626e+00
-4.098079907789188780e+01
-6.361858548095142396e+01
-6.243626970580089619e+01
-3.527223105449661489e+01
6.491137012443747523e+00
4.689391528127553244e+01
7.249598448815875429e+01
7.127576670923112090e+01
4.807682795451508184e+01
9.285602306863264488e+00
-2.913664016128806367e+01
-5.175163517200317642e+01
-4.754215695239059869e+01
-2.035695813238185892e+01
2.341348761297146908e+01
6.080656093292350306e+01
8.338585406426653890e+01
8.313849428003510411e+01
6.191842075106298893e+01
2.112014572372386567e+01
-1.629236374393334330e+01
-3.788455792240172570e+01
-3.464791801557741024e+01
-1.044156964611239147e+01
3.333593739921450094e+01
7.371928993572559818e+01
9.627579779608217336e+01
9.700129700908676966e+01
7.276009956919985200e+01
3.295479178190826275e+01
-8.447968612730313964e+00
-3.001735252816385824e+01
-3.075355170219743073e+01
-3.526064410972692187e+00
3.425848755300824422e+01
7.363210347525561872e+01
9.516581687808154300e+01
9.286417610149027269e+01
6.860186562226928686e+01
2.678954169743735036e+01
-1.060345355561037373e+01
-3.215001778631630458e+01
-3.485905682010108819e+01
-9.610441243257014321e+00
2.818113925517966933e+01
6.654500273606953442e+01
8.805591250374257584e+01
8.472713276134282978e+01
5.544372012260115667e+01
1.262439668530460501e+01
-2.875881736151768564e+01
-5.628255249491786572e+01
-5.496443217816340621e+01
-3.169469896028120814e+01
8.103893685539494740e+00
4.645798890174920359e+01
6.894608586553461294e+01
6.759016819172289559e+01
3.928566428153644807e+01
-2.540642040503898968e+00
-4.491405882042107578e+01
-6.941495545305062365e+01
-6.806967658629594098e+01
-4.477883638038783687e+01
-4.973247977129648945e+00
3.337106315483506336e+01
5.683633815490651386e+01
5.645328359470403967e+01
3.012769930934853591e+01
-1.270557326702134837e+01
-5.106917672335667646e+01
-7.654722546085237411e+01
-7.617478885545848755e+01
-5.286285232298476444e+01
-1.105028455508498197e+01
2.528422667682036007e+01
4.972667056227479065e+01
4.931648017131462325e+01
2.396982641529164582e+01
-1.587039578235173565e+01
-5.422416986237796266e+01
-7.967936131952019707e+01
-8.027976779767097071e+01
-5.394674560851674983e+01
-1.212721487163541312e+01
2.819748064817037658e+01
5.161708427701199042e+01
4.917975912154019369e+01
2.481204680758897041e+01
-1.403510837565780633e+01
-5.237903703062323757e+01
-7.681136183131607709e+01
-7.538461222602802536e+01
-5.303051505850409342e+01
-1.020403775115327427e+01
3.011082624828585352e+01
5.250758048743472983e+01
4.904312164430889709e+01
2.265436169336075878e+01
-1.919970983714105373e+01
-5.553377702232108959e+01
-7.594322579958890174e+01
-7.748932095469645276e+01
-5.111415949555428995e+01
-1.128075201908612435e+01
2.702426465549744350e+01
5.039816038079202798e+01
5.090656893747975431e+01
2.649677227867268670e+01
-1.336419895813298098e+01
-5.268838863277757412e+01
-7.607495202878632767e+01
-7.759389279895567881e+01
-5.119767774334039956e+01
-1.435735650196848567e+01
2.793779704705393030e+01
5.128882514325554354e+01
4.977010219783078071e+01
2.733927976851742159e+01
-1.252857453102739527e+01
-5.184287065838796593e+01
-7.420653932445821965e+01
-7.669832657518085739e+01
-5.128106862667972621e+01
-1.243385002742567025e+01
2.585142459911049784e+01
5.217957595989972930e+01
5.163372262104734034e+01
2.718188536676942135e+01
-1.469283534933188129e+01
-5.399722189667935623e+01
-7.633798649326654129e+01
-7.680262110086596294e+01
-5.036433097148529470e+01
-1.151023142421727208e+01
2.776514848671698488e+01
5.107041401470220165e+01
5.049743140171030120e+01
2.602459027619994458e+01
-1.485698020767163463e+01
-5.315144114630383854e+01
-7.546929234301528311e+01
-7.690677519464435363e+01
-5.244746360478428215e+01
-1.158649952220917712e+01
2.667896988380613266e+01
5.096134049052196957e+01
5.236122973328438235e+01
2.486739569845860842e+01
-1.602100790180116974e+01
-5.430552720702573311e+01
-7.660045568264186500e+01
-7.601078767628591493e+01
-5.153046535475646550e+01
-1.066265315238529610e+01
2.859288996318190357e+01
5.285235656909972590e+01
5.222511880810643703e+01
2.471030283406169659e+01
-1.718491722862398419e+01
-5.845947887979469471e+01
-8.173147532224108147e+01
-7.911465736670886884e+01
-5.261333505074607331e+01
-1.273869114689103021e+01
2.750690989650777851e+01
5.174346343102612167e+01
5.108909981737073025e+01
2.355331288238042831e+01
-1.734870698617251605e+01
-5.761329496669605987e+01
-8.186235007306676437e+01
-8.221838308800295181e+01
-5.469607152323982291e+01
-1.281461233905289454e+01
2.542103085430117915e+01
4.963466225574806145e+01
4.895317395112902403e+01
2.339642704162924858e+01
-1.751237597366749910e+01
-5.876697427099318816e+01
-8.299307874755538705e+01
-8.232196366344408034e+01
-5.577867360389878115e+01
-1.489041556331874006e+01
2.433525400589723731e+01
5.052595422155703631e+01
4.881734239826130306e+01
2.223964650885415040e+01
-1.767592299149786683e+01
-5.692051559713301856e+01
-8.212366015932987295e+01
-8.242539791747995537e+01
-5.586114012559689002e+01
-1.696609965534883102e+01
2.324958051946782689e+01
4.641734050555945856e+01
4.568160634647584573e+01
1.708297247992100765e+01
-2.183934684124039194e+01
-5.907391775075778639e+01
-8.525409312321511379e+01
-8.552868467577056322e+01
-5.794346992236546612e+01
-1.404166345197985066e+01
2.516401156200989320e+01
4.730882228368503917e+01
4.754596698229452301e+01
2.092640614950388667e+01
-2.000264632566338463e+01
-5.822717953872277974e+01
-8.238437645523985964e+01
-8.263182276518267599e+01
-5.802566182947201412e+01
-1.711710579127627341e+01
2.407854829930924012e+01
5.120040073066697062e+01
4.941042549104424353e+01
2.276994871106669649e+01
-1.716582024877810042e+01
-5.838029976907738217e+01
-8.251450897266806805e+01
-7.973481101381582903e+01
-5.310771468339157764e+01
-8.192425512494324380e+00
3.399319189592284829e+01
6.009207702002458262e+01
6.527498305683045032e+01
3.861360135688512685e+01
-3.288674157709010615e-01
-3.753327725114405666e+01
-6.064448949399272237e+01
-5.983764825099653706e+01
-3.218962732185863729e+01
1.073237854388256096e+01
4.890794351522234251e+01
7.498385232406147338e+01
7.313964086255505492e+01
4.645736527796107396e+01
6.508213366905636121e+00
-3.268611079544425024e+01
-5.477431683894758407e+01
-4.894033330729867259e+01
-1.927139858381157467e+01
2.065730753610034753e+01
5.882280431932722564e+01
8.487572781385577514e+01
8.500440008987526141e+01
6.030124166411191311e+01
1.934542329156084151e+01
-2.283879921377126365e+01
-4.690398982853641030e+01
-4.504286501456682856e+01
-1.535302730947142003e+01
2.558236262119430293e+01
6.373777546909948910e+01
8.876770465922913900e+01
8.586926191920677809e+01
5.814523170385800199e+01
1.518276354924640970e+01
-2.599134131920181545e+01
-5.103350728502690004e+01
-5.114524220590137560e+01
-2.743451234031316943e+01
1.450754495493767671e+01
5.265285812415643107e+01
7.665978402876241660e+01
7.573422752970925842e+01
4.898933658447823802e+01
8.020235329744782149e+00
-3.014373592604647456e+01
-5.616286803196421573e+01
-5.324746371568480896e+01
-2.651585251911770769e+01
1.343285569179044714e+01
5.056805344286524218e+01
7.355196708976450282e+01
7.059929809927466238e+01
4.483355749199873230e+01
4.857839821549648107e+00
-3.429598184994682697e+01
-6.029207089419051613e+01
-5.934952837960812388e+01
-3.459704668990926280e+01
6.358295984959209335e+00
4.648336258227640627e+01
7.244425500826089603e+01
7.346447480451283241e+01
4.667789561112041241e+01
5.695578211894062548e+00
-3.344807790782594026e+01
-6.242111469785821498e+01
-6.245143503465565971e+01
-3.667809369806135322e+01
3.283866986345932659e+00
4.839878669816715728e+01
7.433664894899965248e+01
7.132975882075471930e+01
4.452235212526819197e+01
4.533451686659512703e+00
-3.760002291790601703e+01
-6.254999827042425409e+01
-6.155318251913159600e+01
-3.575899239024086285e+01
5.209569846544358285e+00
4.731432694502987601e+01
6.922915007542218291e+01
6.719515132201107122e+01
4.136692821657268127e+01
-2.628538569564206284e+00
-4.075181569975049456e+01
-7.067872044067901527e+01
-6.965476967266538111e+01
-4.683974161441955175e+01
-4.864594285171509824e+00
3.922998447600576100e+01
6.812175954965397295e+01
7.406065348098778145e+01
5.821162506582493990e+01
2.820960862650952805e+01
-2.903455074257202284e+00
-1.680728003875777787e+01
-1.756195336238231874e+00
3.807965978005362473e+01
1.020613757391490140e+02
1.671457604429281503e+02
2.180144785325024657e+02
2.289262664690743350e+02
1.950564438524851596e+02
1.490478944567811652e+02
9.594506013635447061e+01
5.706432410386505438e+01
4.014254164783814360e+01
4.999921294250187032e+01
6.998748106609005504e+01
8.406165599631091823e+01
8.490730818343990904e+01
6.079199145630543910e+01
2.490138575469826066e+01
-1.211367989817509638e+01
-5.120626889152889305e+01
-7.406390684565477045e+01
-6.795855756413165238e+01
-3.908108097909101986e+01
5.913722840897360555e+00
4.997767228528238803e+01
7.780024966058418556e+01
7.665782961137641394e+01
4.774645194922152314e+01
6.724886740869349566e+00
-3.535744098287130299e+01
-6.119197172153322128e+01
-6.105949181720835384e+01
-3.416122083815285748e+01
8.840102207474821228e+00
5.189381045763455802e+01
7.569330412070459602e+01
7.252378210162882510e+01
4.659164361144692634e+01
6.563595551754193735e+00
-3.450845496399895751e+01
-6.031986935937134575e+01
-6.116025995782948144e+01
-3.624120548946700637e+01
6.766620308293580521e+00
4.981007165978743956e+01
7.658647271920067112e+01
7.338985009302690798e+01
4.543696191542345275e+01
8.402447710910845302e+00
-3.765930966266030566e+01
-6.244759859616682007e+01
-6.026086083385079206e+01
-3.432103378921082992e+01
1.069327828449174866e+01
5.472645703675314621e+01
7.947975661008142367e+01
7.725603475014317212e+01
5.028240803379163282e+01
9.241444393422453274e+00
-3.381000390800711841e+01
-5.957515827032715094e+01
-5.736129329451564729e+01
-3.040070459499419542e+01
1.262007727578358818e+01
5.664296773218535463e+01
8.137315694597097604e+01
8.012233723617401893e+01
5.312798313777199155e+01
1.308058677294097905e+01
-3.296053653057546740e+01
-5.970254722167172190e+01
-5.746155619049646646e+01
-2.848021676580322747e+01
1.254701842045606597e+01
5.655960488831318855e+01
8.026667487808757073e+01
7.798875871290128714e+01
5.297368839721460887e+01
1.291987602167580818e+01
-2.811090636235194751e+01
-5.282976429146211217e+01
-5.056164837390322475e+01
-2.255956916207259511e+01
1.747410285539708497e+01
5.847636964592982878e+01
8.616031155623410598e+01
8.385530034068067096e+01
5.681952498052001488e+01
1.375931331045378059e+01
-2.626111223676065265e+01
-4.995680832239644786e+01
-4.466156869827969444e+01
-1.963876064569695501e+01
2.340133171606031937e+01
6.639326314443567867e+01
9.505406812878678124e+01
9.272196327845773567e+01
6.666549405465482891e+01
2.459889980863632886e+01
-1.741115298865646110e+01
-4.108367815862092698e+01
-3.576131601862393694e+01
-1.171779007998133970e+01
3.532870613642212732e+01
8.031028652177248262e+01
1.039479457426855475e+02
1.015887486837291505e+02
7.551159678516071949e+01
3.343863668410815393e+01
-6.561027454366691103e+00
-3.021037264575789294e+01
-2.686088919141171516e+01
-1.796656329713478328e+00
4.325622724904945926e+01
8.322744091441195735e+01
1.088419455434152923e+02
1.084556577125313481e+02
8.035783433610927773e+01
3.727852510333723046e+01
-2.710734471708551752e+00
-2.633689063090048421e+01
-2.396028707457758244e+01
1.246417388315936847e-01
4.218389618501718985e+01
8.114472745740496862e+01
1.047360686750038354e+02
1.013226915194566118e+02
7.520420787008364982e+01
3.111856623128414867e+01
-1.386027287994589408e+01
-3.946323096262582197e+01
-4.205950852755346858e+01
-1.795389474209266467e+01
2.411171407389675636e+01
6.006214728428547289e+01
8.363031628001243689e+01
8.118985125761115285e+01
5.105071854823522415e+01
4.958761231422469606e+00
-3.700964151985515116e+01
-6.458939249101376845e+01
-6.115855241128010533e+01
-3.703226464170881371e+01
6.039682043808294765e+00
4.497970152712582603e+01
6.752468949950586818e+01
6.205713807861613418e+01
3.389736753017724169e+01
-1.420088873424081655e+01
-5.515883923373659314e+01
-7.971537406766194067e+01
-7.725741758819091842e+01
-5.311046683079459996e+01
-1.003219877863030973e+01
3.189739131648910586e+01
5.441918947306716348e+01
5.092455313260539640e+01
2.674415597404815514e+01
-1.836038250524802606e+01
-6.030786486536509727e+01
-8.584117454567103778e+01
-8.435610292225059936e+01
-5.818850018159243120e+01
-1.410392726835436861e+01
2.681521778145409840e+01
5.031381733876769147e+01
4.779209756819902566e+01
2.259108503645957455e+01
-2.351971892266239550e+01
-6.245671726008618663e+01
-8.896679277969141708e+01
-9.145460727896661979e+01
-6.026636356791570392e+01
-1.717550230178434845e+01
2.773318204953764621e+01
5.220857423315784729e+01
4.965977253248883017e+01
2.143815587251903310e+01
-2.267889682904762694e+01
-6.760539526476676997e+01
-9.109222762591565470e+01
-8.855292952537283213e+01
-5.834405586511934416e+01
-1.724692275690850352e+01
2.365128524677388810e+01
4.810346129126314452e+01
4.552757917105792984e+01
1.828536963577785812e+01
-2.683791506851088471e+01
-6.875389772781853992e+01
-9.521747794208081928e+01
-9.165106853006827237e+01
-6.242157595008380611e+01
-1.831818751323858407e+01
2.456952849761857749e+01
4.899847964657475075e+01
4.439551862792639270e+01
1.813272747824719389e+01
-2.699677248676163543e+01
-6.790222349920925637e+01
-9.134254258750532074e+01
-9.074902316322848606e+01
-6.349892270125353377e+01
-1.838929545186075387e+01
2.148791292497402949e+01
4.789363043102364514e+01
4.526359204557385851e+01
1.598023055038671103e+01
-2.815546793101183454e+01
-7.105037143051606563e+01
-9.446742042307442944e+01
-9.184679229658590316e+01
-6.357609499868215153e+01
-2.046024545539919615e+01
2.540643965020807116e+01
4.678891477497855078e+01
4.313180056490989500e+01
1.682788000105940540e+01
-2.931400025010609411e+01
-7.019834037485244949e+01
-9.259211031126262981e+01
-8.894437480348112501e+01
-6.065309172398245607e+01
-1.553103640811450781e+01
2.232510979309460097e+01
4.568433380724565041e+01
4.300014532527814026e+01
1.367567697758160961e+01
-3.147236829445360939e+01
-7.434612918696370798e+01
-9.671661111615375717e+01
-9.404176955885563416e+01
-6.472991176036481420e+01
-1.860166719579599359e+01
2.324392447180246180e+01
4.457988865503197218e+01
4.186862746442666605e+01
1.452362262567786289e+01
-3.163057091604722970e+01
-7.149373672320200512e+01
-9.784092170343765815e+01
-9.513897543925057221e+01
-6.580655399266871086e+01
-2.167213670588379415e+01
1.916288480293241037e+01
4.447558044395961474e+01
4.173724811850920702e+01
1.337171808942877504e+01
-3.178860696851431200e+01
-7.464116184150745426e+01
-9.796504094042144573e+01
-9.623599132283023039e+01
-6.688301730733995498e+01
-2.074244382743246717e+01
1.908199190147585966e+01
4.337141029804367065e+01
4.160600842207387728e+01
1.121996451135531103e+01
-3.194647530710407324e+01
-7.478840340147340271e+01
-9.708896769605497923e+01
-9.433281608941182128e+01
-6.795930059243482901e+01
-2.481258745108247510e+01
1.700124688077974966e+01
4.026737933967218908e+01
3.847490950803661747e+01
9.068363032305381211e+00
-3.410417478866700947e+01
-7.593546026433354257e+01
-9.821270084093308128e+01
-9.742944862043626131e+01
-6.603540273769957025e+01
-2.188256646914268799e+01
2.092065085255944012e+01
4.316348868961300411e+01
4.134395250770421626e+01
1.191691479151095479e+01
-3.326170427173737210e+01
-7.808233129295496155e+01
-1.003362392472993321e+02
-1.005258877990103912e+02
-7.111132263449263746e+01
-2.395237977556178421e+01
1.784020492692364357e+01
4.205973946698644284e+01
3.821313855071657883e+01
7.765620926576897176e+00
-3.741906261650463250e+01
-7.922901535187929767e+01
-1.004595817890645435e+02
-9.662213250991169389e+01
-6.618705917583683629e+01
-2.302202626595522617e+01
1.775991021227934752e+01
4.195613278926687428e+01
3.908246876507921286e+01
1.061448257340170542e+01
-3.457624868478492886e+01
-7.837551130733982063e+01
-1.005827273418283312e+02
-9.771818163959956394e+01
-6.626261125645764594e+01
-2.309150483757670003e+01
1.767976781541070253e+01
3.885266977226258689e+01
3.795194427713347807e+01
5.463500866255117216e+00
-3.873326134010349620e+01
-8.052181802721248971e+01
-1.037056747828654295e+02
-9.981403407620443602e+01
-6.833797777276701879e+01
-2.216081438940046056e+01
2.259977884140796789e+01
4.574935153011549005e+01
3.782156621152992670e+01
5.312676937726148907e+00
-3.889009944767400384e+01
-8.066793438111700709e+01
-1.038284229911632224e+02
-1.019096887095824968e+02
-7.041315762283335289e+01
-2.522995382209277437e+01
1.651994439366255563e+01
4.164617917527056790e+01
3.869133569124215200e+01
6.162011918684662248e+00
-3.804676187438579404e+01
-7.881385924034381674e+01
-1.029509708474151353e+02
-9.900514443128304265e+01
-6.748814970648135159e+01
-2.329892203797536609e+01
1.644026557388594156e+01
3.954315381849133360e+01
3.656125383755599501e+01
5.011506938297713987e+00
-3.920324748885458632e+01
-7.895959147790122756e+01
-1.020733172340334391e+02
-9.610040013457816599e+01
-6.556295292523476803e+01
-2.236771794114737233e+01
1.736074348208065388e+01
4.144027656882418853e+01
3.843132177003326433e+01
4.861163124059558527e+00
-4.035955516144136368e+01
-8.210512996855625545e+01
-1.001954610351690320e+02
-9.819545471448948604e+01
-6.763756618232727647e+01
-2.143634043737745642e+01
1.928137921650544939e+01
4.033754853359803150e+01
3.730154060651651804e+01
6.710981601691791809e+00
-3.851568376418410367e+01
-7.925047358879179171e+01
-1.003174011367170948e+02
-9.529030706777085413e+01
-6.571198838278186827e+01
-2.250478843420193442e+01
1.720217387371807760e+01
4.223497081842197076e+01
3.717191146313063399e+01
5.560963495200720530e+00
-3.567163217091180627e+01
-7.439562121684740248e+01
-9.943913642632112726e+01
-9.338495609293187272e+01
-6.178621843331922037e+01
-1.857306084089610465e+01
2.512312854853449196e+01
4.613254452715867160e+01
4.004243545425937612e+01
1.041110992685275960e+01
-3.482739925720787966e+01
-7.454057173271840497e+01
-9.656066579339960754e+01
-9.247940069025828791e+01
-6.186025524246436902e+01
-1.564115656848518654e+01
2.904424433398205707e+01
5.203027076192213229e+01
4.891311369251540242e+01
1.726142201716353597e+01
-2.498298390038937811e+01
-6.768532401819663846e+01
-9.068198812914810958e+01
-8.657363976180718623e+01
-5.793409772051663253e+01
-1.270907452977900221e+01
2.996552232137225502e+01
5.892815062306331697e+01
5.078394728877365338e+01
1.811190088483895977e+01
-2.513838497954962037e+01
-6.982987695682761853e+01
-9.580310232654163372e+01
-9.066767221141461164e+01
-5.900774477952622021e+01
-1.677681363937493231e+01
2.188696360020619736e+01
4.382618520916790317e+01
3.565493735211297377e+01
4.962547646860283379e+00
-4.029360137561663180e+01
-8.197422943395133643e+01
-1.049240072803610389e+02
-1.007614969447382975e+02
-6.808119533336676454e+01
-2.584437281362920658e+01
1.680856925819961845e+01
4.072437561702982833e+01
3.452608498983682495e+01
2.813363418377257119e+00
-4.144863197126104382e+01
-8.111838033674885651e+01
-1.050447018871970499e+02
-1.008551128692207470e+02
-7.015444829771193724e+01
-2.391175097069945110e+01
1.573034038130766632e+01
3.762272294164911557e+01
2.939739130745940088e+01
6.643493127383557351e-01
-4.260347565098613387e+01
-8.626232855416978396e+01
-1.091651850454558996e+02
-1.029485188941447120e+02
-7.022750259004625661e+01
-2.697894703060303456e+01
1.465227805363669233e+01
3.852122827623126966e+01
3.126885740867884067e+01
-4.844935584925771366e-01
-4.575813130113874649e+01
-8.740607297703837730e+01
-1.082854556553788115e+02
-1.010417139306249084e+02
-7.130035712970345685e+01
-2.804595991511703446e+01
1.257438335749295888e+01
3.941989271215249602e+01
2.914048439537585011e+01
-6.331640855746130114e-01
-4.391259780985667760e+01
-8.754961249796909328e+01
-1.114055126190544343e+02
-1.041346968916028857e+02
-7.337301083783597733e+01
-3.211278854789991044e+01
7.496657373371782285e+00
2.831871733897447641e+01
2.001227336761577291e+01
-9.781661160641768049e+00
-5.106687406711915145e+01
-9.069294601146681600e+01
-1.055253548404126889e+02
-8.722746669188651936e+01
-4.544546263746022419e+01
6.820568145545241379e+00
5.841910117988732054e+01
9.621770324441490629e+01
9.988422542360902412e+01
8.807001632237549416e+01
6.577904103519487933e+01
5.216392758612208524e+01
4.635501877474236920e+01
5.167997775185516218e+01
8.048228854657396880e+01
1.117541112378994796e+02
1.423417158538509284e+02
1.421168515143451145e+02
1.207563416597161989e+02
6.992186946767083100e+01
6.251486034068740594e-01
-6.797899060341308086e+01
-1.137643906812679404e+02
-1.194123624789251892e+02
-9.158975621250300492e+01
-4.231215820004608474e+01
2.645024701772982212e-01
2.701616323277944787e+01
2.762862317045674132e+01
1.773899377551096279e+00
-4.052855025808297285e+01
-8.112169948015811372e+01
-9.988358211800110098e+01
-9.350448630464794064e+01
-6.466159584329510324e+01
-1.937823909940097167e+01
2.118746210190925794e+01
4.191563948185932986e+01
3.450107104845304207e+01
3.626107152494629560e+00
-3.868205444675893290e+01
-7.826419794612607461e+01
-1.010025544469106791e+02
-9.359639264764606992e+01
-6.273322927632004564e+01
-1.844413039312275870e+01
1.911059582023087700e+01
4.281528134184269163e+01
3.537368638446164937e+01
2.478493891037103936e+00
-3.883536286195295162e+01
-7.940648490519092206e+01
-9.612130658136896955e+01
-9.168808043215983616e+01
-5.880465544401316436e+01
-1.450983101605944903e+01
2.403390469443889899e+01
4.571508989110991195e+01
3.824647026735941324e+01
6.331060689864170143e+00
-3.498847440497413430e+01
-7.754855926315167380e+01
-9.723983743664572899e+01
-8.977954858433139407e+01
-5.687587328070366510e+01
-1.157533990503134369e+01
2.895738979186692674e+01
4.861506620613143070e+01
3.911942378408431864e+01
9.183808643725040355e+00
-3.414138797896897870e+01
-7.969041992777255246e+01
-9.635814592996069905e+01
-8.687079603224441371e+01
-5.794688172265287562e+01
-1.364065599872302137e+01
2.988105217802284130e+01
5.051521136145545654e+01
4.499254801968618267e+01
1.403673884545622386e+01
-2.929410248906665259e+01
-6.983206580868122160e+01
-8.847623098045917800e+01
-8.496182170591859517e+01
-5.501767970805787655e+01
-1.070577823776518223e+01
3.180489291640643756e+01
5.441552642973059051e+01
4.686584405728367386e+01
1.788985238596401217e+01
-2.744661684231834187e+01
-6.497349581749779190e+01
-8.659409150924261667e+01
-7.805262453732359518e+01
-4.608826617706228035e+01
-1.770705564729453840e+00
3.972891306862905481e+01
6.231601248164872686e+01
5.673931297806024077e+01
2.674315035421386000e+01
-1.759892994772377506e+01
-5.411470886778631240e+01
-7.471172643935949509e+01
-6.414320346038950049e+01
-3.315864007176672601e+01
1.016456307584519081e+01
5.265311369434373745e+01
7.421667058597083155e+01
6.761295586125341117e+01
3.759663383723354002e+01
-4.751040716241767825e+00
-4.225570387507710279e+01
-6.082913469585210464e+01
-5.323355741101759975e+01
-2.122880033623953722e+01
2.010002873752095454e+01
6.157749585124656022e+01
8.111750180949665889e+01
7.748677378413776751e+01
5.145030392003361897e+01
8.097051939214978233e+00
-3.239647975686565928e+01
-4.994631520572097827e+01
-4.432368532708431985e+01
-1.329874591652721705e+01
2.603569247177662760e+01
6.950206059506599843e+01
8.701850721707376124e+01
8.236076782204690971e+01
5.230416168573484725e+01
5.945349103690190873e+00
-3.453703543268209586e+01
-5.506326689796851070e+01
-4.741358614848434172e+01
-2.136847576065124343e+01
2.197155532823433077e+01
6.042680897954065244e+01
8.291968787155099108e+01
6.923493904829120993e+01
3.915820821541956320e+01
-4.206148139668258068e+00
-4.667736982398380974e+01
-6.817998870360929686e+01
-6.250325881707608744e+01
-3.443798881868761441e+01
6.907618354411717121e+00
4.435174205646760015e+01
6.282104483381375815e+01
5.610928853424513107e+01
2.301244458819028083e+01
-2.335743870977713499e+01
-6.681748185428391196e+01
-8.829647955564797712e+01
-8.559270227675071396e+01
-5.450728404263926308e+01
-1.215611740411452857e+01
2.627686087557411554e+01
4.472257916274075740e+01
3.798381734923882647e+01
7.866871881145293344e+00
-3.750852152754924873e+01
-7.795737044910276836e+01
-9.941273838913876659e+01
-9.168191547344285652e+01
-6.257636038658467470e+01
-1.721965090379826790e+01
2.220216648462492515e+01
4.062429191519697014e+01
3.485852656061945254e+01
2.721491169368192686e+00
-3.965939551591975487e+01
-7.709703453599031775e+01
-9.752876414114703607e+01
-9.377089735507553314e+01
-6.564521680661925984e+01
-2.428298110311856561e+01
1.512765992935291237e+01
3.252618414603927022e+01
2.773341723370153034e+01
-4.236964740825861497e-01
-4.381005959985658649e+01
-8.323647304453643869e+01
-1.016445557507955755e+02
-9.585964687166233489e+01
-6.671385226087961939e+01
-2.334610696259012030e+01
1.705334225346041777e+01
3.742825690809306138e+01
3.060849043179575446e+01
4.313100218019698673e-01
-4.496051270637096309e+01
-8.237568490638152241e+01
-1.017601121592586679e+02
-9.594816297524573656e+01
-6.278226570954016239e+01
-1.740902744477371300e+01
2.097921449860882248e+01
3.833051125214509369e+01
2.848374721612644933e+01
-7.134882739598467083e-01
-4.411075376452778585e+01
-7.951466905522678985e+01
-9.887543230977594533e+01
-8.903644461994694836e+01
-6.285045611489269390e+01
-1.847174151427075373e+01
2.090527770440814948e+01
3.923294822692983530e+01
3.135918864591304711e+01
1.419097054969569172e-01
-4.326078170545602575e+01
-8.165342442683301272e+01
-9.899051514766262017e+01
-9.312449076193672681e+01
-6.391842244121838945e+01
-1.853424813781278502e+01
2.383153290840665051e+01
4.013556887913505022e+01
3.323481577829407030e+01
2.997505025081277807e+00
-4.241059546237498523e+01
-8.179194995908962085e+01
-1.001053596203168325e+02
-9.221230035951832349e+01
-6.298616365492274838e+01
-1.759654628411366417e+01
2.275798114608048905e+01
4.103837425335640887e+01
3.511062966831654819e+01
3.853298747527880153e+00
-3.956019397052554609e+01
-7.893024459190756659e+01
-9.621996467724568447e+01
-9.129987237304538894e+01
-6.205367872454596068e+01
-1.865863492403809687e+01
2.368462345083508325e+01
3.894136539213481285e+01
3.498663136899180870e+01
4.709291933539351049e+00
-3.970957616733866757e+01
-7.606830726734713721e+01
-9.733432927004409407e+01
-8.838720576499842707e+01
-6.112096662064855934e+01
-1.672051303053282467e+01
2.261146085393615834e+01
4.184454333589850705e+01
3.386282193118598371e+01
4.565485641706580111e+00
-3.985874099228757927e+01
-8.020613692956965224e+01
-9.844845235243661818e+01
-9.147429949998843313e+01
-6.118802631596028618e+01
-1.878217957865280852e+01
1.953849438461673316e+01
3.974790912298757917e+01
2.973920240370896551e+01
4.218809284983748853e-01
-4.400768738697715321e+01
-8.134373252485931971e+01
-9.756233288027198114e+01
-9.156115254473419895e+01
-5.825485678530717593e+01
-1.884363354557144632e+01
2.046572506994956342e+01
3.865146378962789697e+01
3.061577383323125545e+01
-1.721521151693320206e+00
-4.515641429513837579e+01
-7.748109300163366697e+01
-9.967596981153658930e+01
-9.364776386809893438e+01
-6.532145700570507074e+01
-1.990487391057508404e+01
1.839315393489548711e+01
3.655520836992394607e+01
3.049253726430683642e+01
-8.647195466468886593e-01
-4.430492066265442475e+01
-8.261821731045375827e+01
-1.027893621063646350e+02
-9.573413244109403308e+01
-6.438782595621729854e+01
-1.996589965515224918e+01
1.632078200228150422e+01
3.545914389584872595e+01
3.136949373935631513e+01
-7.713206251956705728e-03
-4.445320543749182463e+01
-7.875510440404610790e+01
-9.890250872704844198e+01
-9.182025723689579877e+01
-6.145396261815905348e+01
-2.202670976283003057e+01
1.724861029280219427e+01
3.536327139723330504e+01
3.024664429865667969e+01
-1.150501082602893632e+00
-4.360126756986883834e+01
-8.289175323725447697e+01
-1.030154086380486262e+02
-9.090613723082243780e+01
-6.251986597496891562e+01
-1.708730321942130814e+01
1.717663982495115249e+01
3.426759190175996395e+01
2.812398998033781083e+01
-2.293082129856259144e+00
-4.574910601212332750e+01
-8.202816276717859978e+01
-1.011280608060043136e+02
-9.099177140041760481e+01
-6.158553501221890514e+01
-1.914767901279792284e+01
1.910487161512761034e+01
3.717210643493640276e+01
3.000153182033882970e+01
-4.354553044354290137e-01
-4.689671971872294876e+01
-8.516433195300911052e+01
-1.052404641997463699e+02
-9.807715872536039114e+01
-6.365096871776366072e+01
-2.120783613307463611e+01
1.403330667752112504e+01
3.507681602011649602e+01
2.787927085246487380e+01
-3.577619564887960735e+00
-4.604410764641757225e+01
-8.330025975621293810e+01
-1.003526177902921859e+02
-9.316229818757570058e+01
-6.171616608154205608e+01
-2.126777357254023215e+01
1.796194602410155028e+01
3.798172167845935832e+01
3.175720810831000307e+01
-7.195738719790760740e-01
-4.319126875409136801e+01
-7.843594514041488708e+01
-9.846452055088650468e+01
-9.224718877117081206e+01
-6.078112609579584102e+01
-1.732749032566769287e+01
1.889079066471385460e+01
3.888682442893458813e+01
3.263534461728062297e+01
1.138682811367704772e+00
-4.033820200286770330e+01
-8.057138707146623346e+01
-9.657617145698084471e+01
-8.533182946247896439e+01
-5.484584775492683661e+01
-1.038698538918741221e+01
3.081984160695144226e+01
5.279212528830910856e+01
4.651368140657859840e+01
1.799715151997706641e+01
-2.648490635602450283e+01
-6.270658451745475759e+01
-8.268756948625893699e+01
-7.541621925006273841e+01
-4.391033005559039282e+01
5.537422379974934472e-01
3.774909985621599873e+01
5.669762527113711315e+01
4.939221950119129190e+01
1.885583328646743695e+01
-2.063138077917805546e+01
-5.784153644866817245e+01
-7.379871361864366008e+01
-6.550035712472401883e+01
-3.197457199662196459e+01
1.149469355472215071e+01
4.367856641563761855e+01
6.360332538975303862e+01
6.027095992388140644e+01
2.871472914124096576e+01
-1.277762424007189601e+01
-5.097624183767408113e+01
-6.990960283631015670e+01
-6.158424207951416207e+01
-3.003857257918632939e+01
1.443586955764467206e+01
5.360824228619276255e+01
7.150922665424646141e+01
6.714990369517704494e+01
3.457384011240384325e+01
-6.923635708744821926e+00
-4.611069965927184455e+01
-6.502023612368074623e+01
-5.766787310973712977e+01
-2.610233080664840344e+01
1.937727124106243082e+01
5.653812846653138280e+01
7.841533007248520448e+01
7.302905183336164896e+01
4.143316722589560186e+01
-1.069414157540879984e+00
-3.924490889057222631e+01
-6.113061246746509880e+01
-5.375124921299335057e+01
-2.116584568465280114e+01
1.831889959713898719e+01
5.646822595308333348e+01
7.732163665006028452e+01
7.190840535446407955e+01
3.829271150533978840e+01
-6.214958560977194679e+00
-4.337886851087962725e+01
-6.424073085664298333e+01
-5.983436938912204539e+01
-3.022911622111988805e+01
1.126075561564145389e+01
4.639853574003661407e+01
6.722814739032095588e+01
5.878796527224857016e+01
2.815247397210375624e+01
-1.336026789591186947e+01
-5.051257750187627238e+01
-6.835059028247138713e+01
-6.191723264027879736e+01
-3.329214142625572492e+01
7.202840284183185560e+00
4.532905881926945568e+01
6.313486329433180089e+01
5.666773259819809283e+01
2.401245564526072940e+01
-1.550534114145916575e+01
-5.064603484744637996e+01
-7.246018973853631451e+01
-6.599983797091165627e+01
-3.735492031256197265e+01
4.145154587977060601e+00
4.025979618039845320e+01
5.904178536087780316e+01
5.454770834154510339e+01
2.087265754164975107e+01
-1.865017727909418710e+01
-5.777923953387170286e+01
-7.656952822070283560e+01
-7.008218438777780079e+01
-3.741745189483181377e+01
2.087699509983472979e+00
3.719074881069909111e+01
5.694891458645442839e+01
4.942789350915980862e+01
1.973308067572614632e+01
-2.179477529250481282e+01
-5.791219054966747137e+01
-7.667860472716982656e+01
-7.016427089995337951e+01
-4.047973519024364464e+01
-9.695239690995656190e-01
3.712191769522334539e+01
5.785625196524589597e+01
4.830828910567618095e+01
2.259372605967732284e+01
-1.993913416774374170e+01
-5.904488688570823030e+01
-7.878741825846195468e+01
-7.524609651883662309e+01
-4.354176921816140577e+01
-3.026514870988318506e+00
3.105330381662767536e+01
5.076379848913020254e+01
4.718889613338019728e+01
2.045459470341296537e+01
-1.608325289323828144e+01
-4.617732753523753786e+01
-5.589596781744531029e+01
-4.032766025818492039e+01
3.964469995762804899e-01
5.091672778033471047e+01
1.029849081552790011e+02
1.446715551476691246e+02
1.600697155922406978e+02
1.503156876144154523e+02
1.177728695403419010e+02
7.869048850622628777e+01
5.499574759067731833e+01
5.159103886590957444e+01
6.533491443885574768e+01
8.786020495853205148e+01
1.099167316892448838e+02
1.095795229280867460e+02
7.695074847988605882e+01
2.317700579792572668e+01
-3.637076586008291201e+01
-8.144143775923529915e+01
-1.011122710416726136e+02
-9.148999816499002691e+01
-5.472636592680520096e+01
-1.019608236506699583e+01
2.884877539417959369e+01
5.248770281525685277e+01
5.083199579162862847e+01
2.603855025679374435e+01
-1.551415808993331247e+01
-5.257310533189300372e+01
-6.922002272443270954e+01
-6.557077037170213885e+01
-3.978739312623918778e+01
-2.521332215548923728e-01
3.778104024343014089e+01
5.739609579172223164e+01
5.271345852038638213e+01
2.290032199148266656e+01
-1.665730614699630863e+01
-5.470451321440258141e+01
-7.232750646990965038e+01
-6.665127677744368384e+01
-3.584816619070885224e+01
3.692053355702100248e+00
4.271352720796858904e+01
6.130470283764427109e+01
5.559513765673500529e+01
2.576232200011508056e+01
-1.380020903141926070e+01
-5.083566041175680539e+01
-6.943472129281776972e+01
-6.173151640777781779e+01
-3.590868415377676115e+01
2.636478330896444788e+00
3.864623725640549168e+01
5.821352493082231661e+01
5.247703418889805960e+01
2.362455127847731973e+01
-1.494286574579853522e+01
-4.996654593141061440e+01
-6.854166621024816664e+01
-6.181148829069236683e+01
-3.296894605144088075e+01
7.581142665832818039e+00
4.457917135491113214e+01
6.412256304668382256e+01
5.935914910266878053e+01
3.048701081988378903e+01
-1.008527529503134090e+01
-4.809716878317536271e+01
-6.864834024170752969e+01
-6.189119145657512178e+01
-3.202895092214438932e+01
5.526047319981472583e+00
4.451233046737861798e+01
6.803181815824888190e+01
5.924148338149648652e+01
3.034970161529328436e+01
-1.022743668648318582e+01
-4.722752797927469715e+01
-6.475474240912458868e+01
-5.497062493822342333e+01
-2.808869780664518601e+01
1.247119325031091108e+01
4.944571555518383121e+01
6.894129123614651178e+01
6.412403800640829843e+01
3.421262465329941449e+01
-6.369348929918661639e+00
-4.535762253440015002e+01
-6.486087173684836671e+01
-5.504978777088145847e+01
-2.414818574822167463e+01
1.641658141143602023e+01
5.537932757734863998e+01
7.685098324860194907e+01
7.000681395600628321e+01
4.507578091998082925e+01
1.488988962457430176e+00
-3.448745146560573005e+01
-5.396672725165785067e+01
-4.612867899221531331e+01
-1.720741379254218728e+01
2.436221275552955134e+01
6.331316749046222725e+01
8.376089516141584568e+01
7.788981220648543058e+01
5.093917139908788272e+01
1.034757797606935270e+01
-2.361701379243250898e+01
-4.207230798278584416e+01
-3.420729764232250147e+01
-7.266380987674590841e+00
3.530808823234418981e+01
7.524723624869452010e+01
9.567102793795184823e+01
8.677303373162428102e+01
5.980279707189285432e+01
1.920641909380312740e+01
-2.074630853686067411e+01
-4.017761296191701348e+01
-3.728564276376913966e+01
-5.325086384221947355e+00
3.625420878912412093e+01
7.218153480372916420e+01
9.158138253915527116e+01
8.465647950274060918e+01
5.566665891719441106e+01
1.606551329613896684e+01
-2.687533472334210671e+01
-4.628264122319757234e+01
-4.036371340160655308e+01
-1.438352903519187365e+01
2.420057537075318876e+01
5.911606410486887597e+01
7.649195992350412610e+01
6.754015048870971327e+01
3.853075791136422623e+01
-4.075138438858282086e+00
-4.400409137875238486e+01
-6.738739180325869427e+01
-6.444150860331129138e+01
-4.044170799607611144e+01
1.147188919587758704e+00
3.705082509892267950e+01
5.340276104702791571e+01
4.542404765595489380e+01
1.639509502835150201e+01
-2.621553513570626848e+01
-6.613257753251517101e+01
-8.449186374119810239e+01
-7.951902741889182380e+01
-5.249962232484598701e+01
-1.390594962447392113e+01
2.198581873018497390e+01
4.031378686329784955e+01
3.230817196840324357e+01
4.259671239533165732e+00
-3.735567582129391440e+01
-7.426079221649679596e+01
-9.359605607861465160e+01
-8.759626890082859063e+01
-6.255727108197589814e+01
-2.195883932401695660e+01
1.392104594058654499e+01
3.122503832339248220e+01
2.919252438754571699e+01
-8.755124860990406432e-01
-3.949555952504848477e+01
-7.738873446507317055e+01
-9.769996785961492947e+01
-9.067323210408328293e+01
-6.261465333038250947e+01
-2.601147924410340551e+01
1.185650766945598633e+01
2.813651637591613408e+01
2.507710587236520183e+01
-4.010455182088367820e+00
-4.263518527892922805e+01
-8.051640331513910098e+01
-1.008035981308114799e+02
-9.374991608617096972e+01
-6.667176813557460946e+01
-2.806386845236050931e+01
1.179220485368214355e+01
3.204822196697551817e+01
2.396191737933389021e+01
-5.145155884522569778e+00
-4.577455211737375862e+01
-8.064379780607194448e+01
-9.890694594133239548e+01
-9.282631990709985814e+01
-6.472861456553606274e+01
-2.411600601883248629e+01
1.272813842763604697e+01
2.996015604017598832e+01
2.284695986243189836e+01
-4.279613631916696193e+00
-4.291365907729163354e+01
-7.977091697979818719e+01
-9.901001034284428215e+01
-9.190244262941536135e+01
-6.478519169073510398e+01
-2.516789101613165514e+01
1.366430932318444391e+01
3.287231953659567552e+01
2.873223427313799760e+01
1.586172534636993703e+00
-3.905250519821553468e+01
-7.789775988080270963e+01
-9.511279038955078136e+01
-9.097828331819560788e+01
-6.584149858426020785e+01
-2.721952251944776435e+01
1.460071846962329900e+01
2.978471339481725622e+01
2.861774156038526939e+01
-3.547796428470046948e+00
-4.319108952216879516e+01
-7.702432555609246378e+01
-9.421528513820163653e+01
-9.305384104110270016e+01
-6.689753432168879499e+01
-2.427089960639974464e+01
1.453736679378282304e+01
2.969733855086396801e+01
2.750348267057978546e+01
-6.815195674000662507e-01
-4.132941109367462218e+01
-8.015061305519427037e+01
-9.731749364811579994e+01
-9.212911486828677710e+01
-6.595329798116677011e+01
-2.332202135726553749e+01
1.347425521991532449e+01
3.261019593823133533e+01
2.638945854759141341e+01
-1.814995930807860702e+00
-4.446746895992303905e+01
-8.427662143027831121e+01
-1.004194149811634276e+02
-9.720410387253568274e+01
-6.800878864340374719e+01
-2.737288685483378003e+01
8.411384669686103877e+00
2.852328648786156506e+01
2.427567013270933316e+01
-2.948224569990870236e+00
-4.360526217055942766e+01
-8.140234973600757939e+01
-1.005210482018022589e+02
-9.427880712918587847e+01
-6.606400539169632680e+01
-2.642349518441304568e+01
7.348756062278184231e+00
2.243661112813963143e+01
2.216211836470327512e+01
-4.081204538757528866e+00
-4.674278977785138522e+01
-8.352779702966120112e+01
-1.026223923770732540e+02
-9.735322371613852965e+01
-6.911894731186689000e+01
-2.847384543398278822e+01
7.286370314223574951e+00
2.835017078487084063e+01
2.604880417974385409e+01
-4.213934893492822908e+00
-4.688005083668213047e+01
-8.365296237114354483e+01
-1.027234465766152312e+02
-9.842735271393220842e+01
-7.117361349241360813e+01
-3.052393669406075105e+01
7.224228339508091068e+00
2.626396638129832439e+01
2.093572851142865332e+01
-2.346414693223859871e+00
-4.601704440449664446e+01
-8.377784482289084167e+01
-1.028242098726605747e+02
-1.005011932056815169e+02
-7.022800302437872233e+01
-2.957376805772788941e+01
7.162331049550687112e+00
2.717799883806984695e+01
2.382289229075893644e+01
-7.478642999487988163e+00
-4.915376954129509812e+01
-8.690244344998293968e+01
-1.049246813400710749e+02
-9.857474427712142528e+01
-7.128211500142811019e+01
-3.262333862070043011e+01
8.100679353148908746e+00
2.709226907322614863e+01
2.371029644616597309e+01
-5.610618876482948991e+00
-5.029022530979941052e+01
-8.502675732014088794e+01
-1.050248600563204491e+02
-9.964800501660221244e+01
-7.233594851983214369e+01
-2.967264748135472985e+01
7.039274156469836896e+00
2.600677800222886304e+01
2.259794190343107445e+01
-5.742341391005439277e+00
-4.742641077524195481e+01
-8.615078550369049992e+01
-1.041247451015166519e+02
-1.017209745151413074e+02
-7.238950267854536946e+01
-3.172169374057889257e+01
4.978116363097807806e+00
2.592152653789862171e+01
2.248582958574025881e+01
-6.873809612488436471e+00
-4.856232500553198861e+01
-8.627452707356027872e+01
-1.032243355584108571e+02
-1.027936518663255328e+02
-7.344277657907440471e+01
-2.777047650200221085e+01
4.917206873979957038e+00
2.783651559044558610e+01
2.237396041367539112e+01
-4.005022612939590942e+00
-4.969796707126475610e+01
-8.639798110540375831e+01
-1.053236305123961785e+02
-1.038660361664624361e+02
-7.549576932561393505e+01
-3.181899487184674769e+01
4.856546587417202687e+00
2.375174606744463190e+01
2.126233530513395209e+01
-5.135979467091477346e+00
-4.883333604558877994e+01
-8.552114667744979215e+01
-1.044226290515295688e+02
-9.993812651448256190e+01
-7.454848002505579529e+01
-3.186724795893637108e+01
3.796136399111933457e+00
2.366721887383156542e+01
2.015095517541970338e+01
-9.266679252269366174e+00
-4.996843100437228458e+01
-8.564402287062489449e+01
-1.065213302665408861e+02
-1.030099220119911934e+02
-7.560090778685659529e+01
-3.191523487484727895e+01
6.735977202045745571e+00
2.858293491188128499e+01
2.203982093716258461e+01
-8.397121048470783222e+00
-5.110325102613344939e+01
-8.676660876856217897e+01
-1.096197332508313735e+02
-1.050814217632628527e+02
-7.465305172324454475e+01
-3.196295473375963780e+01
4.676069886572520318e+00
2.649889508122460313e+01
2.292893350031676647e+01
-3.527303938360347502e+00
-4.623779519208079591e+01
-8.288890345750836275e+01
-1.027178371004800397e+02
-9.915262487528610791e+01
-7.070491094908703644e+01
-2.801040665254512163e+01
1.161641534039807055e+01
3.241510027881616907e+01
2.681829377218032207e+01
-2.657227007292792820e+00
-4.137206258604346232e+01
-7.701090602644590888e+01
-9.781564091427586050e+01
-9.322353045770097424e+01
-6.375648458191354706e+01
-2.105758975074435213e+01
1.855701444852603998e+01
4.133155139892564023e+01
3.270790265739360336e+01
5.213110656748881411e+00
-3.650605229463739221e+01
-7.513261556704526356e+01
-9.791314379370076892e+01
-9.229413762287197187e+01
-6.280777174198117052e+01
-2.010450315067011218e+01
1.649786809324911019e+01
3.724824933315431963e+01
3.259776105786589540e+01
6.083709963003009591e+00
-3.863976340711685964e+01
-7.825403117369630479e+01
-1.030103448429514117e+02
-9.936444548589720682e+01
-7.185877155229758273e+01
-3.015114597718025991e+01
5.438977154196649622e+00
2.516519497039073627e+01
2.048786987283102690e+01
-9.045428181952154034e+00
-4.877319501544624814e+01
-8.637515194344955205e+01
-1.091072431689479316e+02
-1.034344531645453600e+02
-7.490948313850248041e+01
-3.519751735800107895e+01
3.803425082807301294e-01
2.408238919682725054e+01
2.137822999883870878e+01
-9.174302874207214131e+00
-5.290634621437175156e+01
-8.849597697619410042e+01
-1.092038378813326744e+02
-1.055041597793649686e+02
-7.895990562900371401e+01
-3.824361642350013568e+01
-2.678034970312651808e+00
1.899983289594860381e+01
1.926884232967379518e+01
-1.230291321267207039e+01
-5.303921610127284225e+01
-8.961650537444083398e+01
-1.133001280924914482e+02
-1.095735644536213442e+02
-8.201003815498607707e+01
-3.728944230678940386e+01
3.263845589924045498e+00
2.191752694851320982e+01
1.715970775644827029e+01
-1.143125829888634470e+01
-5.417180377632834620e+01
-9.073673624350027467e+01
-1.133961129175625047e+02
-1.106426663133052983e+02
-8.005987985027842058e+01
-3.733499414370253788e+01
1.205985057698523377e+00
2.283547223254443992e+01
1.605082716752056626e+01
-1.255933723716973560e+01
-5.830410834244649720e+01
-9.585666869142374935e+01
-1.174917914744348479e+02
-1.117114644872066123e+02
-8.510942985156063401e+01
-4.638027107288213813e+01
-7.851615700977397694e+00
1.775366962333438892e+01
1.894220144849399645e+01
-6.871491346308218340e-01
-3.243612890530506121e+01
-5.997630182903451157e+01
-7.358716288375475756e+01
-5.477995810685793998e+01
-1.115868729823065308e+01
4.757472776436873829e+01
1.060910441771472392e+02
1.516721199934252411e+02
1.618338314822369739e+02
1.331853068989519784e+02
8.943213542671855976e+01
4.090436523011979375e+01
6.317773731040823293e+00
-5.848146306550532358e+00
6.792348667572753129e+00
3.153000322393651444e+01
4.703396555257631917e+01
4.459082421260076501e+01
1.572571814888162223e+01
-2.994196824900598841e+01
-7.369931445761847044e+01
-1.072146666303539462e+02
-1.227769807562496283e+02
-1.159160282233718107e+02
-8.325632109909531664e+01
-3.851444384112727448e+01
1.977149283002049174e+00
2.650978314788976320e+01
2.161786232574284838e+01
-5.068973693889883947e+00
-4.783047767227590441e+01
-8.533339652960174249e+01
-1.088714254746255818e+02
-1.049836029972213112e+02
-7.730469574600876115e+01
-3.455861258039452366e+01
4.920596223419728688e+00
2.742899766353312430e+01
2.351026488741109333e+01
-4.195708553851563494e+00
-4.496135333400175682e+01
-8.345182358953108803e+01
-1.039655595558929519e+02
-9.605086977075393406e+01
-7.235277442363710065e+01
-3.260250214638342925e+01
6.864307225962086534e+00
2.834846862099733755e+01
2.340292670566407196e+01
-7.322171949732798168e+00
-4.609194056240383475e+01
-8.456994693493179227e+01
-1.060593821346506047e+02
-1.011178276894609098e+02
-7.040055628535264987e+01
-2.964611169434695626e+01
1.080828314000304147e+01
3.126819687896337285e+01
2.729584864949445588e+01
-4.483630053579403807e-01
-4.222223847980106370e+01
-8.468776569332743520e+01
-1.051528923483209326e+02
-9.818447590163501104e+01
-6.844804048729720591e+01
-2.568944038229717108e+01
1.475252481214905842e+01
3.718818329330847661e+01
3.118903158508690154e+01
1.425719152798539113e+00
-3.835224621140487500e+01
-7.780527899509596068e+01
-1.022460893371557660e+02
-9.725081355841517450e+01
-6.849522618839031907e+01
-2.673248737115501683e+01
1.169703308612990611e+01
3.610842871709539281e+01
3.108247637584599588e+01
3.300075395390489774e+00
-3.648196288518619212e+01
-7.592248597346697636e+01
-9.833897224423520811e+01
-9.231683981374411019e+01
-6.354211255046578799e+01
-1.977525182458597541e+01
2.164180880289103825e+01
4.302893400058559337e+01
3.697618388231484232e+01
8.174706590205726542e+00
-3.061138763199397061e+01
-7.203938576448533126e+01
-9.443154021547611876e+01
-8.638255382444225461e+01
-5.458869873815208251e+01
-1.181773290914988550e+01
3.058685280057385825e+01
5.194969999120905157e+01
4.887015496223232702e+01
1.904961360228567813e+01
-1.874051958548494667e+01
-5.915597750700844415e+01
-8.252379239965486590e+01
-7.644795475013597752e+01
-4.663498391889497441e+01
-1.859929794199377540e+00
3.953216591446268069e+01
6.287072753355851518e+01
5.776439047052480191e+01
3.192479729378898057e+01
-8.869357882226349687e+00
-4.727226034281525102e+01
-6.661572794839666756e+01
-6.251304175333886803e+01
-3.168096726302274391e+01
9.098158348033287268e+00
5.247774897696523055e+01
7.479201746939529016e+01
6.965889125923187919e+01
3.980025852399726460e+01
-1.997901661547196284e+00
-4.138823341651398380e+01
-6.170734601619813020e+01
-5.657781399943101519e+01
-2.672664794376884956e+01
1.505653234252200079e+01
5.642360281770476149e+01
7.471357063762192752e+01
6.755365817757117952e+01
3.567599814936380653e+01
-6.126150065687916424e+00
-4.850389587555058313e+01
-6.979864576043561897e+01
-6.564227065663783378e+01
-3.777202513715205612e+01
3.015193011281581903e+00
4.236972826340011977e+01
6.263538787428822729e+01
5.444869207190092197e+01
2.355201702350524329e+01
-2.025410223980871649e+01
-6.361924687031736880e+01
-8.588962634136402130e+01
-8.270641089611179098e+01
-5.781709802211287297e+01
-1.602585882649922411e+01
2.331612613790217381e+01
4.255747001258274054e+01
3.534399378568208050e+01
1.428315997107777235e+00
-3.838175733185651950e+01
-7.673428555404979079e+01
-1.029802869221227866e+02
-9.877023389187465341e+01
-6.986186578050757134e+01
-2.606662235448173348e+01
1.226279726223005184e+01
3.247981788281528992e+01
2.423956415954378230e+01
-3.695104081967027554e+00
-4.550911449271450238e+01
-8.884901108290151228e+01
-1.090706266687652004e+02
-1.048337388208255305e+02
-7.490632759703093768e+01
-3.110709675924829298e+01
1.120974245445156825e+01
3.040243231240636845e+01
2.113540403120882516e+01
-7.818242368776019191e+00
-5.063617287619463525e+01
-9.096342261589703071e+01
-1.131606447502455239e+02
-1.078969248628154816e+02
-7.795048265933846210e+01
-3.514728123032615770e+01
3.156962529797553429e+00
2.732531412589995767e+01
1.903151423549273247e+01
-7.941098021302654075e+00
-5.176293163898305494e+01
-9.207751931501768183e+01
-1.142503403384249623e+02
-1.099597912005818614e+02
-7.799433015796903135e+01
-3.218717496005446321e+01
7.104458300553424976e+00
2.724846414493432789e+01
2.392789560432519380e+01
-8.063670200408139976e+00
-5.188938994063258292e+01
-9.119130034510979499e+01
-1.113397126081121797e+02
-1.060223370197861357e+02
-7.703786928635294373e+01
-3.322677714373354263e+01
8.052230576140175344e+00
2.617188318823186677e+01
2.182454896674199318e+01
-5.185958069825232997e+00
-5.001554694371205301e+01
-9.130476487401500663e+01
-1.104287607370251720e+02
-1.030845615090440077e+02
-7.308109924087716536e+01
-3.026608697961733441e+01
1.100028016299501843e+01
3.409557207162288250e+01
2.772147514883240405e+01
-1.307960796294832306e+00
-4.714140181367321958e+01
-9.141791207246728845e+01
-1.115174839058318099e+02
-1.051464638598966559e+02
-7.412401922090765538e+01
-2.930510366884308127e+01
1.094860786474104586e+01
3.201953160799192233e+01
2.661867497379040870e+01
-4.429677549445596441e+00
-4.926695371887450392e+01
-9.053074111414542813e+01
-1.086058812981553103e+02
-1.022080432668112735e+02
-7.216662842866901428e+01
-2.834382641548635107e+01
1.189721448195712483e+01
3.394376260730159345e+01
2.751614926186225318e+01
-2.551107501787651444e+00
-4.639220183066750991e+01
-8.764325117572543888e+01
-1.066939521005619582e+02
-1.012692989272558179e+02
-7.220892606939517577e+01
-2.738225442663186016e+01
1.284610081232535350e+01
3.186826587658216425e+01
2.541389883033823338e+01
-4.672249828920648440e+00
-4.851714532335792285e+01
-8.975544143677775821e+01
-1.077816955025939478e+02
-1.023302300416403767e+02
-7.225091135128033670e+01
-3.042038691222461466e+01
1.179526765061175198e+01
3.279304221990344104e+01
2.531192449357448382e+01
-5.793103709255980505e+00
-5.264178337415087583e+01
-9.186731107987489509e+01
-1.118691106967572182e+02
-1.043908358133323873e+02
-7.529258348542978752e+01
-3.045822308521899657e+01
9.744715788558771408e+00
2.971809243838915648e+01
2.321022706299264371e+01
-5.913668324224779838e+00
-5.076611516331560381e+01
-9.297885929058836041e+01
-1.119561968785449295e+02
-1.054511154486942814e+02
-7.533394168601071783e+01
-3.149576216158668984e+01
8.694446014977003756e+00
2.964341733020009784e+01
2.210880734700464245e+01
-9.033942858271643672e+00
-5.389013987405229500e+01
-9.109008525745220197e+01
-1.110429532464343225e+02
-1.065110681570991460e+02
-7.537498517010288879e+01
-3.153300336018350691e+01
7.644459115726089493e+00
2.956901769051955498e+01
2.300766615107201218e+01
-1.015392649873377806e+01
-5.401385669248439569e+01
-9.120098817196003438e+01
-1.121293790019078784e+02
-1.065706931508712216e+02
-7.541571315783522778e+01
-3.056994590291399660e+01
8.594755873662702328e+00
2.749489431155663155e+01
2.190680427769808603e+01
-1.127361843600621683e+01
-5.613726480788580631e+01
-9.531156722867227415e+01
-1.132154733494390655e+02
-1.076299896453610074e+02
-7.845612487229354315e+01
-3.260658901467658666e+01
7.545337068632676392e+00
2.842104798254032616e+01
2.080622252635276936e+01
-9.393017863420908498e+00
-5.426036341237535510e+01
-9.442182162512447974e+01
-1.113012354965200927e+02
-1.056889568589606654e+02
-7.549621953959984921e+01
-2.964293192330876536e+01
8.496203477529526538e+00
2.634747948969221909e+01
2.270592169353958312e+01
-6.512123977354697502e+00
-5.338315170114395869e+01
-9.453175056184636560e+01
-1.173866646536695271e+02
-1.057475940130068750e+02
-7.553599638883426337e+01
-3.067897385975147984e+01
1.144735587419829059e+01
2.927418961623827443e+01
2.160590257275797654e+01
-8.630935977165542283e+00
-5.450562887244676347e+01
-9.464135324243568448e+01
-1.164717600344205835e+02
-1.108059003319385596e+02
-7.757545465218605329e+01
-3.171471405791594123e+01
9.398795029494035447e+00
2.820117914239892798e+01
2.050616595446544466e+01
-1.174945306528624656e+01
-5.762779412746988328e+01
-9.375062887347777973e+01
-1.135565208553483814e+02
-1.058638750431845494e+02
-7.761459356483231886e+01
-3.175015175469132345e+01
8.350521711274002001e+00
2.912844884537251744e+01
2.140671262614501558e+01
-9.867674447088834455e+00
-5.474964667047908762e+01
-9.485957666461945337e+01
-1.136409463360754444e+02
-1.079215173772465022e+02
-7.665341236494576549e+01
-3.178528619009345846e+01
1.130253668434593806e+01
3.005599949932580728e+01
2.330754337221480554e+01
-8.985599331021248304e+00
-5.287118570881187907e+01
-9.396819582857659725e+01
-1.117250356992707054e+02
-1.079788265676462231e+02
-7.569191029383136993e+01
-2.982011660711582834e+01
1.225484071044947143e+01
2.898383187540530059e+01
2.120865897408810596e+01
-1.210322692860073701e+01
-5.699241045282246176e+01
-9.607648558109778492e+01
-1.158087881706552480e+02
-1.110358018510088414e+02
-7.573008659580494850e+01
-2.985464225179990905e+01
9.207434548347393388e+00
2.991194674171048717e+01
2.211006021010548039e+01
-9.220556454364079002e+00
-5.711332011588940816e+01
-9.418444514096108833e+01
-1.178922029790289230e+02
-1.080924424669495778e+02
-7.676794051821516973e+01
-2.888886237328969031e+01
1.316031895371911631e+01
3.584034486328841496e+01
3.001174785560260716e+01
-4.337587125860835613e+00
-4.923391391451717425e+01
-9.029207373008040349e+01
-1.109752793562567916e+02
-1.021487476582323524e+02
-6.880547131150839846e+01
-2.292277622376099089e+01
1.711349467914224221e+01
3.776902700213666719e+01
3.391372268278175994e+01
-3.454318163790087937e+00
-4.835419106821850477e+01
-8.439937057341421678e+01
-1.030580165372892623e+02
-9.620471667067165811e+01
-6.184267822925069424e+01
-1.395638305841337967e+01
2.506696247423853663e+01
4.569799391718949266e+01
3.781598546085557189e+01
8.429251208121179673e+00
-3.347415079961576367e+01
-6.850633489896229378e+01
-8.714041376015926232e+01
-7.826034875314748263e+01
-4.487956052800616646e+01
2.010317864381502062e+00
4.302072308544708079e+01
6.362724636430192504e+01
5.671853695593358680e+01
2.131312176309623041e+01
-2.259379233444860802e+01
-6.261296593792655329e+01
-8.422247026600429365e+01
-7.731564315768109452e+01
-4.191611746747355483e+01
9.773272832132562371e-01
4.097477725617036981e+01
5.855678509626313399e+01
5.262137793102223071e+01
1.919729427122931753e+01
-2.371311490151871482e+01
-6.471926292449938956e+01
-8.230418529905517744e+01
-7.737059913937422095e+01
-4.495234831047943658e+01
1.944645933609656652e+00
3.992912572675572846e+01
6.148661086277025589e+01
5.352450914608574095e+01
2.008176949952125767e+01
-2.683211773268168443e+01
-6.482522509602456751e+01
-8.538555810666635182e+01
-8.042521595642405430e+01
-4.698825232291380161e+01
-1.087725452033375007e+00
3.788376923438946164e+01
5.641672441042106811e+01
5.342793135797037962e+01
1.796654821192954188e+01
-2.695080006299527042e+01
-6.293085169299357773e+01
-8.446658793930251363e+01
-7.947949287016102460e+01
-4.802382877378051518e+01
-2.119786144474794298e+00
3.883870851320978090e+01
5.734712648272503088e+01
4.733164532040458283e+01
1.785163116921717119e+01
-2.806916113058590412e+01
-6.603614195895457328e+01
-8.754727405055430722e+01
-7.953342914506387729e+01
-4.705907693526224023e+01
-4.151535417495011870e+00
3.279394429420111123e+01
5.427781782007549083e+01
4.323565178402206044e+01
1.173701912907469591e+01
-3.418720017665610555e+01
-7.414109514062911899e+01
-9.562761569715382848e+01
-8.758702404869839597e+01
-5.209399608258392789e+01
-3.182972548059638029e+00
4.674947730526316292e+01
8.020879915975048391e+01
8.113995149635448456e+01
5.862271284611294675e+01
2.769508355436737901e+01
-2.457104878757618849e-01
-2.707612138961543735e+00
2.535972314820674001e+01
8.387141450585042435e+01
1.507859031837357406e+02
1.917053082711490788e+02
2.091400712359135241e+02
1.910445452017785044e+02
1.435087130717261346e+02
8.157769081498280173e+01
2.565001274633544170e+01
-1.678726263899199012e+01
-3.069318682823988098e+01
-2.116284445156396643e+01
-1.244907505279002180e+00
2.066143791352358505e+01
3.907163477958616937e+01
3.694943364156939936e+01
3.395020554228665333e+00
-3.753937764548784628e+01
-7.345392469413897629e+01
-8.786656646342073884e+01
-7.574575325505361434e+01
-3.919677223943830313e+01
4.724596098487573670e+00
4.461786695084675358e+01
6.300349051865899241e+01
5.285461755384817906e+01
1.928163603879011134e+01
-2.465612108082771670e+01
-6.455752206863391507e+01
-8.494552288157376552e+01
-7.579797541244232661e+01
-4.223036814568540365e+01
1.694414705553555223e+00
4.057459609846492299e+01
6.193563917788210915e+01
5.376009767357410141e+01
1.916856026737057306e+01
-2.477253874804188172e+01
-6.266077863958487626e+01
-8.502413116595462839e+01
-7.584985258376752881e+01
-4.126363146132529636e+01
1.664549023215627699e+00
4.053162606860340134e+01
5.986808147885026443e+01
5.266587473256834073e+01
1.805579397885743731e+01
-2.688862990722378044e+01
-6.476369367263315269e+01
-8.510239059224349489e+01
-7.490138405555157419e+01
-4.029656148050672471e+01
4.634999755667045918e+00
4.348895757026147635e+01
6.380081813999557738e+01
5.757194945951454201e+01
2.294333790892869729e+01
-2.400439382173427560e+01
-6.286626643662211933e+01
-8.018030043929854855e+01
-7.095256911751536677e+01
-3.632915750064395866e+01
5.605767603834209467e+00
4.744659130930315882e+01
6.873384987659233047e+01
5.847832257988247306e+01
2.383119279004563396e+01
-2.211982975805245388e+01
-5.996849620356070432e+01
-7.825785998917285724e+01
-7.000340706259336798e+01
-3.536141882229421896e+01
9.576853265619597266e+00
5.140452798843923432e+01
7.166717740073416110e+01
6.138499481599015439e+01
2.871935935157565467e+01
-1.323493698584528389e+01
-5.107038224861975095e+01
-7.233506852712328339e+01
-6.505389718687121103e+01
-3.139334474917905027e+01
1.154825743558225071e+01
4.936276830717670094e+01
6.860080142133875825e+01
5.729196688700465501e+01
2.960783831964098312e+01
-1.134971477803711792e+01
-5.117192385023673040e+01
-7.141192534160012428e+01
-5.910403878966985758e+01
-2.442493458824906227e+01
2.051998080514945144e+01
6.332131296180101998e+01
8.053472264414078552e+01
7.419923950882687791e+01
4.249663041716932099e+01
1.535837589339557496e+00
-3.827312029002506222e+01
-5.748842972427534193e+01
-4.515383117352172349e+01
-1.145618764969098180e+01
3.249202406259414033e+01
7.628016264546671721e+01
9.346894177167706630e+01
8.210681339423923930e+01
4.938573636393013544e+01
1.242172083699642826e+01
-2.137397085279197029e+01
-4.256458097002850138e+01
-3.420327364414668381e+01
-2.487103246847947702e+00
4.246438789288734483e+01
8.323931804808194101e+01
1.004034595032799331e+02
9.301468925279034750e+01
5.927515687645564668e+01
1.630793568239815272e+01
-2.347447482659961793e+01
-4.264037837698416666e+01
-3.325236551053644973e+01
4.823193036580377679e-01
4.243707297783186760e+01
8.019877985636655637e+01
9.733827653507768218e+01
8.692286779079577741e+01
5.316489266801929148e+01
7.194482839817844422e+00
-3.657463150273949282e+01
-5.771582124648075052e+01
-5.030110608487620993e+01
-1.854791931799418236e+01
2.441007999603974099e+01
6.015854875379130107e+01
7.527339355998964265e+01
6.083134971140105307e+01
2.605494444875890991e+01
-1.891863697965419533e+01
-5.767444017569611958e+01
-8.279090888310400942e+01
-7.434949468262138339e+01
-4.357781843483169837e+01
4.383409622862913579e+00
3.911862542064643122e+01
5.620881126770238723e+01
4.374013571448939075e+01
5.945312925539930404e+00
-4.003142306825789376e+01
-7.977390014326192613e+01
-9.986564059469196764e+01
-9.339753062244999171e+01
-5.860737737315221096e+01
-1.564293746961356391e+01
2.207901053393775470e+01
4.214453034467976522e+01
3.064922649674471700e+01
-6.164001198037162510e+00
-5.414387472142963276e+01
-9.087301070644676315e+01
-1.069400156923247494e+02
-9.744521322630845361e+01
-6.463659546254525878e+01
-1.966896061248468541e+01
1.903970476749856999e+01
3.708055147415421970e+01
2.355862275159056196e+01
-1.027299722158570461e+01
-5.625599123782473754e+01
-9.297177116948492426e+01
-1.100140334903483676e+02
-1.004925418193714819e+02
-6.866547203576892855e+01
-2.269465914015710339e+01
1.500070879187495620e+01
3.401687533611254821e+01
2.046832516922213330e+01
-1.338167444792514260e+01
-5.636777191941785503e+01
-9.607018083993881419e+01
-1.140876933063793928e+02
-1.005395157301269222e+02
-6.769400642888665232e+01
-2.472003239026221877e+01
1.196202327436228074e+01
2.795350260728747571e+01
1.637833443655275545e+01
-1.749003218321800901e+01
-6.147921607138484035e+01
-1.001682390285978954e+02
-1.171609944613043695e+02
-1.055861342903122022e+02
-6.972219798127403578e+01
-2.574507970366292398e+01
1.292364887904152226e+01
2.789043396116736773e+01
1.628865123728532893e+01
-1.859806973683188502e+01
-6.559032300220309253e+01
-1.022659450495284972e+02
-1.162339362792865245e+02
-1.066323968349209963e+02
-7.175004603549515991e+01
-2.876980042452265707e+01
1.188558626666485907e+01
2.782767006797311637e+01
1.619927625183532172e+01
-1.670578642140397108e+01
-5.970109202365816259e+01
-9.936329822012353929e+01
-1.143065180877834592e+02
-1.046783027022801491e+02
-6.977754993745406864e+01
-2.579419390032761683e+01
1.284783609474612831e+01
2.976521159465333710e+01
1.811021015733194162e+01
-1.481318155290567873e+01
-5.981152245078806118e+01
-9.846029786100149295e+01
-1.143787392175390067e+02
-1.037238512339860677e+02
-6.980470903631442070e+01
-2.681825948175298890e+01
1.181039901755393373e+01
2.570305920488872431e+01
1.702145362764272107e+01
-1.392025445050434840e+01
-5.792161360187419916e+01
-9.655694329610997784e+01
-1.114505990026009385e+02
-1.007690417749189180e+02
-7.183152268457860146e+01
-2.784199652280991799e+01
6.773275686008503271e+00
2.064121355907093402e+01
7.933007333375059034e+00
-2.502700443672920017e+01
-6.703136479858838470e+01
-1.036532338527212858e+02
-1.195220967803273027e+02
-1.108138736732806109e+02
-7.285799023799268070e+01
-2.886540438086758797e+01
7.736466747782579034e+00
2.557967531430691110e+01
1.284487194179886416e+01
-2.113343083734745065e+01
-6.514077536585892858e+01
-1.047491688613961003e+02
-1.185932318913858410e+02
-1.078583462806092541e+02
-7.288411105568353321e+01
-2.888848241644146952e+01
7.699972847251899566e+00
2.451844512441226698e+01
1.175704811691071683e+01
-2.123953298148677860e+01
-6.624984463186163453e+01
-1.038447476559900053e+02
-1.196640036797587925e+02
-1.109024589517148485e+02
-7.790988450000574517e+01
-3.491122999351161127e+01
5.663794625456581855e+00
2.045752363989774381e+01
8.669536519435474986e+00
-2.334531020149679037e+01
-6.535857192824448703e+01
-1.049399695737242268e+02
-1.227344114927652186e+02
-1.109462110447564243e+02
-7.993530993669304507e+01
-3.793364647931078082e+01
1.627932720148329793e+00
1.839691150795941610e+01
6.582337806717255546e+00
-3.145076183317303276e+01
-7.146695658983790622e+01
-1.090348339551171932e+02
-1.228044546810514817e+02
-1.129896019212407623e+02
-8.096038673480677517e+01
-3.595573124436212709e+01
1.592387765783918496e+00
1.833660937249826617e+01
1.049545263282339391e+01
-2.655588721556034315e+01
-7.157499795480146076e+01
-1.091293401440014463e+02
-1.258741325985961481e+02
-1.140326309459893110e+02
-8.098511426669870161e+01
-3.597748366253226493e+01
1.557160393486753946e+00
1.827661787407222960e+01
7.408881648530339703e+00
-2.566068569094460017e+01
-7.168269536475494874e+01
-1.102234874876372999e+02
-1.259434446027387509e+02
-1.180752974871760728e+02
-8.200949190807537548e+01
-3.599890311109993490e+01
1.522251230976401359e+00
1.821693764992281928e+01
6.322625501238249512e+00
-2.876515660512039929e+01
-6.979004816458200366e+01
-1.093172753365583247e+02
-1.260123900541618127e+02
-1.181176009163259835e+02
-8.303351903809162593e+01
-4.001998897059092997e+01
-1.512339097234615792e+00
1.615756933396514228e+01
4.236684835027894280e+00
-2.786929930713609949e+01
-7.289705570245216393e+01
-1.074107030446742073e+02
-1.210809683168957491e+02
-1.131595406083213220e+02
-7.905719503908093770e+01
-3.904074062490904851e+01
-1.546609970060885075e+00
1.509851355676794071e+01
1.151060290638554306e+00
-2.997311314929991255e+01
-7.400371732998287655e+01
-1.065037699692555719e+02
-1.221491787583557311e+02
-1.162011159414078350e+02
-8.408051929685206005e+01
-3.706115746131110456e+01
1.419439230256564599e+00
1.703977094554756633e+01
4.065752505461823318e+00
-2.607659748744779193e+01
-7.011003240212107812e+01
-1.105964754709401063e+02
-1.242170207493170722e+02
-1.142423262972010463e+02
-8.010349120055013827e+01
-3.708123887041323030e+01
3.858091181226583899e-01
1.598134212417865285e+01
3.980762113535348590e+00
-2.817975168065895630e+01
-7.221600027718059778e+01
-1.086888189137389134e+02
-1.192844936639252467e+02
-1.092831710606923821e+02
-7.612611014269177190e+01
-3.110098424619694768e+01
8.352500304582093804e+00
2.092322771317425634e+01
9.896089745536720272e+00
-2.228257509143653436e+01
-6.532162031684828207e+01
-1.037807996650425366e+02
-1.203515968797185849e+02
-1.093236496202553667e+02
-7.714837551917129588e+01
-3.112039298601542114e+01
8.319513397313237135e+00
2.386542832968331851e+01
1.281173602877721862e+01
-1.938506708556825231e+01
-6.242689188619020513e+01
-9.587241709562719905e+01
-1.144183297776211248e+02
-1.003637613676517333e+02
-7.117028672923773058e+01
-2.213946449059948307e+01
1.028684900062195595e+01
2.680794458748436426e+01
1.572770158719581701e+01
-1.748722703230705378e+01
-6.253181435362657936e+01
-9.796367057966085667e+01
-1.134846917419519485e+02
-1.044035056980374492e+02
-7.319184317561726516e+01
-2.715819816406374443e+01
2.254507715435572379e+00
1.575077709697955441e+01
6.643987041353071277e+00
-2.658905430423174820e+01
-7.263638709109352476e+01
-1.120545594947093093e+02
-1.265506821604312933e+02
-1.114428820099689119e+02
-8.421304426434471679e+01
-4.217659341394374906e+01
-5.777509860703140987e+00
1.169392646518856793e+01
3.560593008425030348e+00
-2.869054827742771607e+01
-7.574060947373777708e+01
-1.111450832217421407e+02
-1.246163004241865906e+02
-1.194818897054248197e+02
-8.223388940491507526e+01
-3.919464965104643994e+01
-4.809203133620819415e+00
1.263739329574260495e+01
2.477520102197274809e+00
-3.179170833120173256e+01
-7.684448088020289447e+01
-1.142352411451388150e+02
-1.276815459277552236e+02
-1.175205281897322038e+02
-8.625437801011476324e+01
-4.121236628976719629e+01
-7.840571512604327609e+00
7.581178188878475055e+00
-6.052310669410729815e-01
-3.289253384834998428e+01
-7.694800069263517628e+01
-1.133250326527158336e+02
-1.267464180691065110e+02
-1.165587968717324827e+02
-8.327450949631878530e+01
-4.222974274781583404e+01
-5.871614410300530551e+00
7.525281741429381555e+00
-1.687659892003289031e+00
-3.399302421516412664e+01
-7.705116829640951437e+01
-1.184144571356477513e+02
-1.338109162496156728e+02
-1.215966951636272313e+02
-8.929428328323459141e+01
-4.824677844625361445e+01
-1.490233124272239706e+01
-2.530295453165024355e+00
-9.769765769427039004e+00
-4.009317882117490228e+01
-7.515398308044652254e+01
-9.950351398857938534e+01
-1.058750398740984338e+02
-8.663422248106408574e+01
-4.231369879390781819e+01
1.573652719037644232e+01
6.606727857066039178e+01
1.004144471951036621e+02
1.121484519010001293e+02
9.580700294057970723e+01
6.074355556293718195e+01
2.340779739036881324e+01
6.121164918319976778e-02
3.286217568893619045e-01
1.966724454500950969e+01
5.172017473404377341e+01
6.803721560689461967e+01
6.135951027283543624e+01
2.306699371597413517e+01
-3.029247832642217730e+01
-8.935855176200792016e+01
-1.306805224003206831e+02
-1.480021610914565429e+02
-1.337081618723405825e+02
-9.635145269648452881e+01
-5.229583524662007221e+01
-1.299251956027198673e+01
9.304894363215765907e+00
3.985860268813354423e+00
-2.939162202207572605e+01
-6.846030445447014756e+01
-1.057684727655471306e+02
-1.210651575111643865e+02
-1.117445727946786178e+02
-7.936978995177661034e+01
-3.731150218645162653e+01
-1.021926360586846272e+00
1.325060004598187646e+01
1.905052149452892252e+00
-3.049042754962567159e+01
-7.356170191708228856e+01
-1.068560531137875387e+02
-1.241277770285381337e+02
-1.147806104395671127e+02
-7.838776665776050834e+01
-3.732682552373006502e+01
-2.051004227298179217e+00
1.519662789744804599e+01
6.824569944293770618e+00
-2.858889431593483721e+01
-6.866274355592742040e+01
-1.009432628569120709e+02
-1.201900190656354681e+02
-1.108162742398913707e+02
-7.640538225487216550e+01
-3.234180470018301889e+01
2.920247403029321731e+00
1.614297849048450928e+01
5.744414236358451831e+00
-2.768702173122720112e+01
-6.876342878054452967e+01
-1.010301014101900705e+02
-1.172518830479796890e+02
-1.068515636320014011e+02
-6.942263618683261939e+01
-3.135643916099215645e+01
2.891829090297704852e+00
2.008965239451471518e+01
9.664585605204571550e+00
-2.178480920912264907e+01
-6.486375700393429611e+01
-1.001165681924853175e+02
-1.163133684045653382e+02
-1.058864780557175891e+02
-7.143952790091628913e+01
-3.137072835479885669e+01
6.863741390975654610e+00
2.503665017550981986e+01
1.358508462693538377e+01
-1.988225616678866103e+01
-5.896372764256459220e+01
-9.420266262605096586e+01
-1.113744745678638424e+02
-9.992101695433625252e+01
-6.745605684792749912e+01
-2.738467173370983687e+01
9.835984858071810777e+00
2.698397239598303088e+01
1.750591187419417594e+01
-1.597936202482908641e+01
-5.806334011637618175e+01
-8.928838413666142060e+01
-1.014352009738290690e+02
-9.195517977463529746e+01
-5.947222248206001893e+01
-1.839826875330267342e+01
1.980856004112915514e+01
3.593161961498405788e+01
2.642706791615869832e+01
-5.076126207318928607e+00
-4.716259384878824790e+01
-8.337373215351284728e+01
-1.014955470619029256e+02
-8.898896596687963267e+01
-5.248802426101940455e+01
-7.411518872631347676e+00
2.778146748624052975e+01
4.587959238809355611e+01
3.634855331853563598e+01
5.827451858190109135e+00
-3.126148826670392111e+01
-6.545870610935477885e+01
-8.255551227502081701e+01
-7.502237498482688238e+01
-3.850346164599927334e+01
4.575578445768194058e+00
3.975470773595907303e+01
5.482789126741761976e+01
4.727036864355510914e+01
1.373137274066412772e+01
-2.636002280051577173e+01
-6.354330544039053308e+01
-7.961509605961717284e+01
-6.705540628571637285e+01
-3.351853410168681080e+01
6.563023735872668851e+00
4.272828132941884149e+01
5.977651680158236047e+01
4.719251444996518785e+01
1.363563700558162139e+01
-2.545819688411130954e+01
-6.162752958640862744e+01
-7.867429786563089067e+01
-7.008805933033985980e+01
-3.753324109626820615e+01
2.550817528165943315e+00
3.370218880222439140e+01
4.872546953572847173e+01
3.711499129301014221e+01
3.540245214927956852e+00
-4.055600995487837679e+01
-7.871137799057834172e+01
-9.973311714651077864e+01
-8.812033358296545771e+01
-5.754758210146327713e+01
-1.646103965036628836e+01
1.367643068657105943e+01
2.867475001150574343e+01
1.803779972449035540e+01
-1.455480207280996297e+01
-5.765346145371053410e+01
-9.479485009964406572e+01
-1.117915533592208419e+02
-1.001522285113429547e+02
-7.156155659238456224e+01
-3.047254727621092130e+01
1.651007511030215369e+00
1.662435876706784654e+01
7.960940292675360297e+00
-2.464950430261978553e+01
-6.475055082501245352e+01
-1.028779453639303085e+02
-1.188496059642457254e+02
-1.071837435867743409e+02
-7.857516404783527264e+01
-3.848370482948784144e+01
-6.374080199267552871e+00
1.357429633706405525e+01
1.884413542298432276e+00
-3.174386092311547003e+01
-7.284727751673622720e+01
-1.079606632371586841e+02
-1.239072744255960146e+02
-1.112148782841356081e+02
-7.558840395005125856e+01
-3.949451179364497477e+01
-3.398831922658771987e+00
8.524563252648107436e+00
8.082200146166442778e-01
-3.183787138624973068e+01
-7.194364098023160636e+01
-1.090430031766417756e+02
-1.259645582108134079e+02
-1.142456320817349251e+02
-8.160127578470607546e+01
-4.050496765574278868e+01
-5.423247141036064534e+00
1.247516004144479496e+01
7.323602474221075909e-01
-2.993153514758282085e+01
-7.003964067056136855e+01
-1.051249646432671057e+02
-1.210214567909761314e+02
-1.112760044614648365e+02
-8.261377904117993864e+01
-4.051507190645948242e+01
-4.447325339874062422e+00
9.426087227572836014e+00
-3.431652251106243057e-01
-3.202485166625858426e+01
-7.113527604619645217e+01
-1.082065471014188915e+02
-1.240779696407067405e+02
-1.103059949088078611e+02
-8.262591321227196772e+01
-3.952482403981700543e+01
-1.471066008046705065e+00
1.237734533162569051e+01
1.581644127717495962e+00
-2.711782040489239876e+01
-6.623054656917614125e+01
-1.032877500189624129e+02
-1.201340962381636359e+02
-1.103356029126938154e+02
-8.063767779435178795e+01
-4.053422355349643169e+01
-3.494468638020371998e+00
1.332893487067183713e+01
1.506788833125263238e+00
-3.121044082957624966e+01
-7.032545170508225851e+01
-1.073685728674369813e+02
-1.201898360650736493e+02
-1.103648279656691500e+02
-7.864907228733540023e+01
-3.954326994868790024e+01
-5.517532725837995145e+00
1.328085635823621402e+01
3.432269414698041032e+00
-2.830271241003051230e+01
-7.141999092304425290e+01
-1.054490151218731881e+02
-1.212451886067123326e+02
-1.063936695638198984e+02
-7.666009619469021175e+01
-3.755196273012685992e+01
-1.540257771019895472e+00
1.123311030432213897e+01
3.580863925470509912e-01
-2.939463461949169698e+01
-7.151416369574425858e+01
-1.065290762608189823e+02
-1.193001533519094011e+02
-1.084221272067932205e+02
-7.667074902344016607e+01
-3.956030140609894374e+01
-7.562643276652245561e+00
1.318569721537920003e+01
3.284240283205662081e+00
-3.048620693474685694e+01
-6.960796949942222511e+01
-1.046087557664488656e+02
-1.213547297930778655e+02
-1.104502003978023481e+02
-8.068103028417067435e+01
-4.056828548844514160e+01
-6.584688749371274241e+00
9.138617594311831738e+00
2.107315997068042179e-01
-2.957742883613860130e+01
-6.870140781388082019e+01
-1.076880531244855064e+02
-1.244089174261920050e+02
-1.104778886436151026e+02
-8.269093949103368857e+01
-4.357591449256669591e+01
-6.606393699368169337e+00
1.009187194047153469e+01
-8.624391485210338715e-01
-3.266829980757005814e+01
-7.179447812249046024e+01
-1.097669678242256026e+02
-1.254627157508060691e+02
-1.115051914546249776e+02
-8.270047616175256167e+01
-4.258318793743006836e+01
-8.627757640394065675e+00
9.045460749652022514e+00
3.064728544407316235e+00
-3.275881933650981637e+01
-7.488717991219424164e+01
-1.098454993585447994e+02
-1.225161242700562525e+02
-1.155321083447568355e+02
-8.270963981762702133e+01
-4.259010534557179994e+01
-9.648780089764954937e+00
8.999384514084255215e+00
-2.007764819187777050e+00
-3.384898691399685333e+01
-7.497951267351288607e+01
-1.109236472239025204e+02
-1.255691424906656266e+02
-1.165586388315545037e+02
-8.471842998353801590e+01
-4.459666624307253358e+01
-7.669460568366545772e+00
7.953643722431621654e+00
-1.079918740555591228e+00
-3.093880203464538781e+01
-7.207147590054952957e+01
-1.090014109203469843e+02
-1.246217699229491558e+02
-1.165847824360862148e+02
-8.472684618795261713e+01
-4.360287015968558677e+01
-6.689798600659116801e+00
4.908238859784994190e+00
-4.151732724503283123e+00
-3.402826419664970103e+01
-7.716306909102556233e+01
-1.120787899515198660e+02
-1.276740060808183728e+02
-1.156105386831152089e+02
-8.673488796292870973e+01
-4.660871662868698451e+01
-9.709793714702939837e+00
9.863170407658117256e+00
-2.223206279483726178e+00
-3.111737290178900039e+01
-7.425429174616158434e+01
-1.091557838246611851e+02
-1.257258504817861535e+02
-1.186359071009553077e+02
-8.474255484411986572e+01
-4.161420518688026959e+01
-6.729445442059727611e+00
5.818438843985120457e+00
-6.294338917434174618e+00
-3.320612765543211253e+01
-7.334514337083700752e+01
-1.122323920505934041e+02
-1.257773026469715631e+02
-1.156608872214754911e+02
-8.574984637078004823e+01
-4.361933537472502564e+01
-7.748753318004141022e+00
6.774044643105924024e+00
-5.365130153930465440e+00
-3.529452796654224755e+01
-7.643562347359464582e+01
-1.103086141438293879e+02
-1.268283621011069613e+02
-1.186854785802541983e+02
-8.475676208576831527e+01
-4.162410673637251790e+01
-3.767716881342259683e+00
7.729988275774104522e+00
1.564420491824741077e+00
-2.638257334768173124e+01
-6.952573156652175612e+01
-1.023844496223705391e+02
-1.198790283725328436e+02
-1.097096807164344909e+02
-7.976330153555343827e+01
-3.962851881939180032e+01
-3.786335674416534403e+00
1.068627020915197789e+01
1.494313497063899376e+00
-2.547026331504601160e+01
-6.361546716522364875e+01
-1.004598980078974364e+02
-1.159293009932148806e+02
-1.067334931727450851e+02
-7.676946427021860586e+01
-3.463257117505292371e+01
5.195390756703943680e+00
1.964289090679613281e+01
1.142454933546679996e+01
-2.255759738832119510e+01
-6.170482978910683869e+01
-9.753495882575361975e+01
-1.129791794987483229e+02
-1.057569154955716613e+02
-7.577524984343654069e+01
-3.363626335833141923e+01
3.177462862425187495e+00
1.759985082865072314e+01
7.355128477005784760e+00
-2.564457509098292931e+01
-6.879381896107423700e+01
-1.006096316048676726e+02
-1.210286634283528713e+02
-1.157799472349782519e+02
-8.278065781262128553e+01
-4.263959492763448367e+01
-6.840118910479390024e+00
5.557150431064492579e+00
2.860513880912449736e-01
-3.173119595003609561e+01
-7.688243420768432657e+01
-1.116839158777578405e+02
-1.270777523248750214e+02
-1.178025879445614521e+02
-8.678568773863824504e+01
-4.764256544511481195e+01
-1.185735411885285373e+01
6.514790166764498736e+00
-3.782681468449297313e+00
-3.481745949601918255e+01
-7.697067505912482943e+01
-1.107578111806396493e+02
-1.261264457348139558e+02
-1.178248371816218878e+02
-8.779033918610315368e+01
-4.464517447652048077e+01
-7.874242323159229784e+00
2.472770484851949391e+00
-3.851069633459431429e+00
-3.490336526327394040e+01
-7.705854104921715475e+01
-1.178313170533478029e+02
-1.311747432083045055e+02
-1.188466945070683494e+02
-8.579461172323928508e+01
-4.364742159123019860e+01
-9.890783087488017600e+00
5.431091830818864707e+00
-4.919112651391372992e+00
-3.598891278965523810e+01
-7.514603171545167015e+01
-1.129044330393613365e+02
-1.292226442991218391e+02
-1.238681594855061974e+02
-9.079850492191135913e+01
-5.064930636225787453e+01
-1.590697597955848863e+01
3.897546465201244814e-01
-6.986810070327088340e+00
-4.107410161668273929e+01
-8.823314659886861477e+01
-1.209771586858079786e+02
-1.342701485647068580e+02
-1.198892316851408850e+02
-7.980201835762986207e+01
-2.865082836622595863e+01
1.607717942927587984e+01
3.834875937018088621e+01
4.094583855801727879e+01
1.984106871048415144e+01
-6.319885244247778644e+00
-2.204949354346847201e+01
-2.431725556614705397e+01
3.090089322150511464e+00
3.319484839044461921e+01
7.234801281650655369e+01
9.506168356402304198e+01
1.023081064363898633e+02
7.887883367828715109e+01
3.675659864304196844e+01
-1.940624719995842895e+01
-7.412143716678099281e+01
-1.123639648681949552e+02
-1.239301960391682798e+02
-1.078079042605029798e+02
-6.565278239797478932e+01
-2.495346315395187986e+01
-3.732203723904909509e+00
-8.187824268514866333e+00
-3.832751137146114928e+01
-7.649223201814891127e+01
-1.101929891138453570e+02
-1.244102760392609071e+02
-1.119500873482969894e+02
-8.281027589694640767e+01
-4.165321359729860262e+01
-8.968260306930815773e+00
8.227829316601727783e+00
-2.254134845033156864e+00
-3.341126088912965741e+01
-7.357783925444198303e+01
-1.072641489464273690e+02
-1.224561886514309776e+02
-1.139695841881198959e+02
-8.381226610902237439e+01
-4.465328037262661098e+01
-8.982707480847089698e+00
1.018820598155912194e+01
-2.320097617563462222e+00
-3.449464946972489088e+01
-7.466306846821711929e+01
-1.093349162299629427e+02
-1.245017022804620126e+02
-1.169886861451255982e+02
-8.381387449053468686e+01
-3.865298231896667858e+01
-2.996804265289540581e+00
1.514892669096985145e+01
3.614287843959992585e+00
-2.957767667666924183e+01
-7.174791922261465515e+01
-1.044052905335623365e+02
-1.225468165057881720e+02
-1.130073928095801250e+02
-7.881510063895854046e+01
-3.665231903489898002e+01
-4.010550253527078723e+00
1.410999186117457072e+01
7.549021965875652995e+00
-2.266034207707986070e+01
-6.783239108426195685e+01
-1.044752714300142884e+02
-1.195915309105250515e+02
-1.040257037753790428e+02
-6.881594415544444132e+01
-2.365129012258021390e+01
1.597605495758920569e+01
3.507140190486078524e+01
2.948410517095973660e+01
-3.742645241654614097e+00
-3.991648362355552848e+01
-7.454485849579015166e+01
-9.063584508147160079e+01
-7.904361864005136340e+01
-4.481640464479298203e+01
-6.649895188025489290e+00
3.196301176741784644e+01
5.203315723103732893e+01
4.141953787826989952e+01
1.217541425517617171e+01
-2.800019641463417130e+01
-6.261405131104795174e+01
-8.267975860912486041e+01
-7.006113700491607688e+01
-3.781648171557690574e+01
2.351866159165467707e+00
4.295032057172713280e+01
6.099525824504974736e+01
5.735532050314097319e+01
2.609383683524556830e+01
-2.008352903525952016e+01
-5.468284945965677935e+01
-6.972327108766280901e+01
-6.107825847491675120e+01
-2.681617497999747712e+01
1.535399430577334812e+01
5.293798176258895438e+01
7.095770534857591372e+01
6.429145345733368799e+01
3.001262291676423644e+01
-1.116648106678925956e+01
-4.175125252909901263e+01
-5.676638211496739927e+01
-4.709498265871031464e+01
-1.181548405388840450e+01
2.835648963483190954e+01
6.792599572841561439e+01
8.392049893960339091e+01
7.822793714886105931e+01
4.293177291434613352e+01
5.750947905541181626e+00
-3.081926011067783833e+01
-4.880909129262629165e+01
-3.911130916865394624e+01
-9.814408556837996400e+00
3.435935252562401843e+01
7.191436285385424299e+01
8.888363941244423927e+01
8.016477198206925436e+01
5.185128723873838652e+01
2.668758292892484008e+00
-2.788687179931766025e+01
-4.685139822592840630e+01
-3.712723762080909751e+01
-7.812948112222777297e+00
3.136258335383202223e+01
6.990308351998614000e+01
8.384712715772894853e+01
7.510195835761666672e+01
4.177116629708354623e+01
-2.413049497213457073e+00
-3.895408719366970729e+01
-5.989330252386608322e+01
-5.414276763494528666e+01
-1.881110234694505223e+01
2.136618249137966075e+01
5.189215810411971574e+01
6.681096256239231934e+01
5.503949667245306898e+01
2.169141049291577161e+01
-1.849447506105155270e+01
-6.002090589609559146e+01
-7.893480379915698109e+01
-7.215789883454398534e+01
-4.080887089173259596e+01
-6.298496933868307224e-01
3.788158697988819767e+01
5.277514600967977287e+01
4.097738731990113337e+01
1.361202022592026850e+01
-3.357551799857393604e+01
-7.108732751267110928e+01
-9.097590166822971014e+01
-8.317263084680243423e+01
-5.080625338096493238e+01
-7.625512836010738482e+00
2.787137051720532099e+01
4.673967787913176863e+01
3.591563068949896120e+01
1.532995892077444466e+00
-4.265617791344467946e+01
-7.915335165321025102e+01
-9.601659575122982915e+01
-8.818696330262024219e+01
-5.680324945285467919e+01
-1.362080657565119424e+01
1.986150908236278667e+01
3.870455854659964956e+01
3.085422716708158219e+01
-2.545662116192822566e+00
-4.173645441307428428e+01
-7.821897793116772846e+01
-9.805688567203138462e+01
-8.720089583668872990e+01
-5.579985874915526978e+01
-1.461573055508696584e+01
2.285200303782410458e+01
4.166978838422412679e+01
3.079317713486285868e+01
1.376046589698674438e+00
-3.981634710846937963e+01
-8.128420596382498786e+01
-9.909677105824250987e+01
-8.921442808732351182e+01
-5.779608091543098425e+01
-1.261028442099740587e+01
1.984285274242332520e+01
3.963536776043385146e+01
3.073248097129503975e+01
-2.701877605345210043e+00
-4.389585561451371376e+01
-8.334903537219240377e+01
-1.011362515411916689e+02
-9.022755969662205189e+01
-5.879191560103119230e+01
-1.560446782368885366e+01
2.183405855126020612e+01
3.960129703994940797e+01
3.067213905106485328e+01
-1.779434320170835804e+00
-4.297497954984849144e+01
-8.241346578091201991e+01
-9.917532675594868863e+01
-9.124029031046759997e+01
-5.978736245897538026e+01
-1.759828041709820923e+01
1.782562081571681745e+01
3.456757658378137421e+01
2.661215174524429017e+01
-4.856623177229202781e+00
-4.605371853656797043e+01
-8.447749681844314296e+01
-1.032139963413281549e+02
-9.325261957839541083e+01
-6.278242114592701739e+01
-1.859172185907378605e+01
1.781753988345398199e+01
3.753420674920990763e+01
2.755251942111555508e+01
-3.933443802905607356e+00
-4.913207220077752879e+01
-8.554112811696472818e+01
-1.052522599398760974e+02
-9.526454715366483583e+01
-6.377709132246397417e+01
-2.258479181110157086e+01
1.480981609842791613e+01
3.450118788979821005e+01
2.349324244225326197e+01
-1.100989582707844150e+01
-5.121004017228907657e+01
-8.960435931241924834e+01
-1.072901171978904813e+02
-1.002760726934347986e+02
-6.177137265281515965e+01
-1.957748993830883677e+01
1.480244980078590800e+01
3.246852035538866232e+01
2.243432116850375024e+01
-9.085978883567491948e+00
-5.628762208450149274e+01
-9.066719004441560514e+01
-1.113275677654243339e+02
-1.052871958584406400e+02
-7.276526480486396053e+01
-3.056981590974462648e+01
9.795441327084546401e+00
2.843620449208314227e+01
1.937575595598169542e+01
-1.116169260984088751e+01
-6.236481757465035969e+01
-9.272961995645397337e+01
-1.103646112962711925e+02
-9.929791631325548451e+01
-6.975876745041863103e+01
-2.556176939807537707e+01
7.788791010004281645e+00
2.440424064225589973e+01
1.831754715704934711e+01
-1.423703664701836047e+01
-6.044162628381138092e+01
-9.879164869562734452e+01
-1.164012474479937396e+02
-1.033082337261731567e+02
-7.275188026494876681e+01
-3.255335007974215955e+01
1.178249917854742534e+01
3.137262914455000384e+01
1.525969512039953457e+01
-1.731201064014182478e+01
-5.351804785662673680e+01
-9.985327591292661964e+01
-1.164374758819091937e+02
-1.093181477693150896e+02
-7.374460292758853086e+01
-2.754455763493331943e+01
5.776566158034626142e+00
2.434137033385813709e+01
1.020220019087957297e+01
-2.138661423791162264e+01
-6.259408194161622419e+01
-9.891450126304286528e+01
-1.184732962630928625e+02
-1.063276581184436651e+02
-7.573693512143684359e+01
-3.653539174758776653e+01
6.770992269920760975e+00
2.331046454133687007e+01
1.114506270964338341e+01
-2.146084709268969704e+01
-6.266972819102668524e+01
-1.059753244043708094e+02
-1.215087082603987199e+02
-1.083367644532247454e+02
-7.772887653314506906e+01
-3.552585210536751248e+01
1.765777831972492606e+00
2.027991209439467468e+01
9.088283014148387906e+00
-2.553470886077024815e+01
-6.674498626086602826e+01
-1.060357449991926444e+02
-1.235437115464385300e+02
-1.123454664569714794e+02
-8.072042685321709143e+01
-3.951593839981460121e+01
-2.390768417351480934e-01
1.724971331669031827e+01
6.031861437996418829e+00
-2.660819920211564593e+01
-7.181985581090651749e+01
-1.080957627135005907e+02
-1.245783057976039601e+02
-1.123537638168205035e+02
-8.371158577601271134e+01
-3.750565032604694693e+01
-2.435714410223539517e-01
1.621986852812970881e+01
8.975798311086286674e+00
-2.568131778038927138e+01
-7.289433650471866599e+01
-1.111553772170004066e+02
-1.296124906940596020e+02
-1.193616562237354373e+02
-8.570235299945355223e+01
-4.049498758306884127e+01
7.522943406727762294e-01
1.819037804486441701e+01
8.920093959610895240e+00
-2.375406426307757357e+01
-6.796842800952072139e+01
-1.082145881832945946e+02
-1.216462659197558764e+02
-1.093691433723536193e+02
-7.669272822544232326e+01
-3.148394987362046038e+01
7.748520806090795077e+00
2.216124217928037154e+01
1.186474870589771058e+01
-2.282643832152299979e+01
-6.704212999648915172e+01
-1.072733952897053626e+02
-1.246796311624160012e+02
-1.133762249611454820e+02
-7.668271115953891126e+01
-2.547253690424237860e+01
9.745108254147986315e+00
2.513246124001095438e+01
1.380976286857936230e+01
-1.389843963065940358e+01
-5.911544214048514334e+01
-9.733179821727782155e+01
-1.157125861135536837e+02
-1.053829006924179339e+02
-7.267230151114188175e+01
-2.846074838512498673e+01
1.074205698013309274e+01
2.510403553191935799e+01
1.375513676250381678e+01
-1.897006786928276867e+01
-5.818836412005765624e+01
-1.003897966509629498e+02
-1.177451304684758497e+02
-1.103891702721604560e+02
-8.366149899331296069e+01
-3.744858403041881445e+01
-2.606327245753163879e-01
1.507596535609584976e+01
3.700870698748587984e+00
-3.004132272005431403e+01
-7.526089561772292313e+01
-1.134473902794206310e+02
-1.317772639262716723e+02
-1.213950334102049027e+02
-9.065030332307760830e+01
-4.643604355796090033e+01
-5.262960572292222139e+00
8.048251009867250616e+00
-3.530350153821046888e-01
-3.511220386923557157e+01
-7.633303631969101843e+01
-1.135045787951425353e+02
-1.328089861898295965e+02
-1.234004898202286569e+02
-9.063871422116011445e+01
-4.442312668927788621e+01
-7.264926279148809840e+00
1.002089278678595008e+01
-1.406580076377863975e+00
-3.518271100695920950e+01
-8.140478591586870039e+01
-1.215613618943355903e+02
-1.358402969658400821e+02
-1.234055392196003140e+02
-9.262673141198649773e+01
-4.640983314986523567e+01
-6.266529564975883204e+00
8.993890976619688615e+00
-6.459764184437538859e+00
-3.725284382723202725e+01
-7.947614410013878228e+01
-1.186177392771436416e+02
-1.368711959647849312e+02
-1.254101813295397392e+02
-9.561435462395535012e+01
-4.639616266888304352e+01
-9.267770153505757946e+00
4.967245865360808921e+00
-1.051258704366447461e+01
-3.832260202763992396e+01
-8.654711057005590646e+01
-1.256737106473719194e+02
-1.439016829009551373e+02
-1.294144158751035434e+02
-1.026015835891726624e+02
-5.738211497931239080e+01
-1.226864777219593350e+01
1.294095773522309401e+01
1.043495163819307692e+01
-1.239198530976778656e+01
-4.761768502703357342e+01
-7.972927571268868974e+01
-8.493175749244629458e+01
-5.941824258511792323e+01
-7.588418043454584705e+00
5.763231018207253697e+01
1.167308378477678588e+02
1.349150268646260145e+02
1.213828521494765766e+02
7.953900662109559505e+01
1.931213282383718877e+01
-2.778443418462794767e+01
-5.896141946116276245e+01
-6.642166119216371101e+01
-5.157485772659835277e+01
-3.235288692529827159e+01
-1.126931302870971052e+01
-1.011054647179356891e+01
-2.466888522521041693e+01
-5.552962594404509389e+01
-9.975765672655241190e+01
-1.328391857783936416e+02
-1.419906685328205356e+02
-1.264246714327370000e+02
-8.956090238211686483e+01
-4.633770604576272945e+01
-6.269100140457545933e+00
1.286423799680864732e+01
2.797397949951445639e-01
-3.559788271819260785e+01
-8.082705339090219354e+01
-1.168935302131402523e+02
-1.320195044369511379e+02
-1.204272730470941042e+02
-8.554655175724124661e+01
-4.232214692758265784e+01
-2.685232300410902440e-01
6.839380537483215505e+00
-7.712725129448898542e-01
-3.066576341794236527e+01
-7.989605688581234233e+01
-1.229474672117769956e+02
-1.340479269068976009e+02
-1.234294657792538032e+02
-8.653180560322172710e+01
-4.230620932263975220e+01
-2.675820439431504383e-01
1.781488141348421550e+01
5.178078124185475417e+00
-3.073326776381309244e+01
-7.696466693178614094e+01
-1.140009965009706718e+02
-1.280759356798307351e+02
-1.204312493771584798e+02
-8.551666367488294895e+01
-3.728989298671424280e+01
-2.266276332388180492e+00
1.779074088426800415e+01
1.112779197585403068e+01
-2.780039548007050954e+01
-6.703288325292584204e+01
-1.100541178113461029e+02
-1.221035304967392676e+02
-1.174326235925183539e+02
-8.450112573107384151e+01
-3.927319767948735318e+01
-2.646058493451164395e-01
1.676695920548415586e+01
7.077869307619188532e+00
-3.086714629490894879e+01
-7.410070557736452201e+01
-1.091068308772117774e+02
-1.201307111024327412e+02
-1.164335881808137714e+02
-7.848519153434217799e+01
-3.125612316426798998e+01
8.737429647292330515e+00
2.474353662898587913e+01
1.302831038128596930e+01
-2.193351994015538509e+01
-6.716813363696203965e+01
-1.021591354367798203e+02
-1.181574772455545030e+02
-1.064341429014742886e+02
-7.246886085108607745e+01
-2.723866920827111215e+01
1.273983039590073219e+01
3.072047340281586258e+01
1.997911545490374152e+01
-1.499951615154055062e+01
-6.123516716730752307e+01
-9.821103123205001850e+01
-1.141838286785773988e+02
-1.004342875176162124e+02
-6.345213345149683448e+01
-2.222083558262014336e+01
1.974259663102576923e+01
3.669776977120393013e+01
2.893028478260470138e+01
-4.065134668701496423e+00
-4.930180590799761831e+01
-8.626251800893047061e+01
-1.032097651578000921e+02
-9.143402179631010540e+01
-5.643500910971073381e+01
-9.202622062073629650e+00
2.874572858339950443e+01
4.767542597457598674e+01
4.488181861476046919e+01
4.869624765084815010e+00
-4.336804960236317186e+01
-7.631359551704298383e+01
-9.123528644335961246e+01
-7.843334550838872588e+01
-4.441748760354253278e+01
1.815971574665972810e+00
3.974922647993798108e+01
5.665344224954016994e+01
4.883371719796213739e+01
1.180476240263037369e+01
-3.843389799747156133e+01
-7.436426350990282685e+01
-8.626039229923338780e+01
-7.843225842855552798e+01
-4.039956871463716936e+01
4.834945545133784606e+00
3.775309054375867390e+01
5.563181882888496688e+01
4.178598077494716989e+01
5.740278492833660096e+00
-4.049935084440477340e+01
-7.741452174492083316e+01
-9.528508249323081714e+01
-8.543076033528055291e+01
-5.138125222862147012e+01
-1.014569993708352769e+01
3.475732099407973408e+01
3.961055594158624871e+01
2.673860958457910897e+01
-9.323826719053666778e+00
-5.956440789798597990e+01
-9.746436998322883483e+01
-1.113093567970076521e+02
-1.044288510109801962e+02
-7.136253793486744712e+01
-2.612596466201329193e+01
7.761918046394782777e+00
2.058965381279901408e+01
1.069160386200518786e+01
-2.738755299169798008e+01
-7.862906891681248567e+01
-1.155138079898588472e+02
-1.303332149860620461e+02
-1.204265302418597230e+02
-8.234342562649439401e+01
-3.810584842375816095e+01
2.766881912372163299e+00
1.356911266384945947e+01
6.449638384942701919e-01
-3.845090008768601564e+01
-8.569333366338047142e+01
-1.215628355337450728e+02
-1.323566568397382355e+02
-1.224237978179153004e+02
-8.832391510064019258e+01
-4.408535102003929751e+01
-6.227787200245160193e+00
1.154893271224321438e+01
-1.401310258565473532e+00
-3.851386777322794330e+01
-8.375720190411760768e+01
-1.226114523875496332e+02
-1.383796821412284430e+02
-1.254206535330963277e+02
-8.730400615816454035e+01
-4.306447225250444433e+01
-5.222089087484746983e+00
9.529114171657390386e+00
-1.447218205490656828e+00
-3.857645581860825246e+01
-8.282067340910992925e+01
-1.216596583278412709e+02
-1.374022906775762465e+02
-1.254170971851474405e+02
-8.828369860380047385e+01
-4.104321192673013030e+01
-6.216023549147081440e+00
1.050965725194063793e+01
-2.492759782554166748e+00
-3.563866399773903026e+01
-7.988374795237930925e+01
-1.167074531350971682e+02
-1.344244822396732957e+02
-1.254131285756104148e+02
-8.826299224612660055e+01
-4.302156985194832828e+01
-1.120959038898371318e+01
9.490562159105898843e+00
-3.537934773809105593e+00
-3.970049208849124511e+01
-8.394642531188546286e+01
-1.197548365935095092e+02
-1.344462566222720170e+02
-1.214087475099867675e+02
-8.824188689756918791e+01
-4.199954584132391489e+01
-3.202789414503634191e+00
1.247182909533977835e+01
-5.827429670905743819e-01
-3.676193987254708162e+01
-8.100870526925270099e+01
-1.148018084912808092e+02
-1.334676136239780533e+02
-1.234039537975793053e+02
-8.822038237437411112e+01
-4.097713971195649663e+01
-5.195620437073039000e+00
1.145345825898507996e+01
-2.627184154196477550e+00
-3.782300713546194970e+01
-7.907058761004731195e+01
-1.208483686203326499e+02
-1.364885530472523953e+02
-1.223987472514938588e+02
-8.519847849675866769e+01
-4.195435128460732699e+01
-3.188083271897838245e+00
1.243544984455416369e+01
2.328741869360818839e+00
-3.288369366651653536e+01
-7.813207212377926680e+01
-1.188945167765227211e+02
-1.335090746984225234e+02
-1.233931276888022239e+02
-8.617617508861398790e+01
-4.393118038397632574e+01
-4.180177738025470546e+00
1.241780404271677440e+01
-7.149646958441522315e-01
-3.794399925898838433e+01
-8.319315860359867543e+01
-1.189402527595489119e+02
-1.335291783876750173e+02
-1.213870949303651798e+02
-8.515347197777640531e+01
-4.190762683870394767e+01
-4.171903658327430264e+00
1.040052104029850710e+01
-3.758303653044471559e+00
-4.000392371000408787e+01
-8.425384684672545177e+01
-1.189855763729902094e+02
-1.355488639290578021e+02
-1.243806488009238507e+02
-8.813036899602947472e+01
-4.288369048109801440e+01
-5.163260859598302943e+00
1.138360102028745757e+01
-6.801274809390307041e+00
-4.206346682039115592e+01
-8.631413665414552838e+01
-1.220304874242112732e+02
-1.385681311404895553e+02
-1.223737891290836046e+02
-8.610686597883599802e+01
-4.585937114741052767e+01
-7.154249172363101650e+00
7.367044161823763204e+00
-3.843877975771249567e+00
-4.112262839491964428e+01
-8.437402783061281752e+01
-1.220749857245394026e+02
-1.355869798437565237e+02
-1.223665157473157592e+02
-8.808296276560953686e+01
-4.583466867780887810e+01
-9.144868431054149482e+00
6.350850640198153485e+00
-9.886112966979560213e+00
-4.418140824230396646e+01
-8.743352018495627931e+01
-1.241190710891688127e+02
-1.416054098645099657e+02
-1.253588284919414662e+02
-8.905865919971623157e+01
-4.380958291625536560e+01
-7.135118474012564604e+00
8.335020626858138826e+00
-7.927979601712166868e+00
-4.423980617493475620e+01
-8.749261352965422134e+01
-1.251627433370653932e+02
-1.406234210322759850e+02
-1.243507272032233715e+02
-8.803395512823661306e+01
-4.178411371047845080e+01
-4.124999143315363881e+00
1.031955428939825481e+01
-7.969477702410323161e+00
-4.129782200918042179e+01
-8.755130768117177809e+01
-1.252060022911238377e+02
-1.396410131804526600e+02
-1.233422117251872123e+02
-8.700885040211707633e+01
-4.575826091224917036e+01
-5.114510284951798269e+00
5.304451791559571916e+00
-1.001060709542321092e+01
-4.535545556523886290e+01
-8.660960245977942407e+01
-1.232488477781690506e+02
-1.416581861463133976e+02
-1.223332819058035739e+02
-8.898334487632169498e+01
-4.773202437710794754e+01
-1.110365174882482364e+01
2.289713293231308455e+00
-1.205136761100976628e+01
-4.341270666716911109e+01
-8.866749768973777179e+01
-1.252912796287833999e+02
-1.396749397710045741e+02
-1.233239375968993556e+02
-8.695743840956370718e+01
-4.170540396436630459e+01
-4.092423388578346533e+00
8.275338950449928177e+00
-3.091759083177848311e+00
-3.846957514289285029e+01
-8.072499319899384318e+01
-1.183332976774827046e+02
-1.316912738995557675e+02
-1.213141786541954730e+02
-8.293113086445703175e+01
-4.167839953738293701e+01
-1.080825061792509700e+00
9.261328915390535599e+00
-2.131781349848118623e+00
-3.652606082422604317e+01
-7.878208881945741382e+01
-1.123749017627175704e+02
-1.267071883808695532e+02
-1.133040049372180249e+02
-7.490442210745781892e+01
-3.165101096329068042e+01
6.931143370111676916e+00
1.824768333637246798e+01
3.828565747144189402e+00
-2.858216354673026771e+01
-7.383878438700233460e+01
-1.094160917267009552e+02
-1.227226830677346783e+02
-1.122934163094804774e+02
-7.987731200901608020e+01
-3.362323811299798137e+01
-2.056517958148504022e+00
1.023440235785759711e+01
-2.210717637789265666e+00
-3.963788315001448836e+01
-8.489507974119354117e+01
-1.234568674156029431e+02
-1.357377578168195953e+02
-1.222824126383224836e+02
-8.784980044324674964e+01
-4.659508086149530470e+01
-9.043808915718912544e+00
2.221486120442357048e+00
-8.249631354172365150e+00
-4.269321947746624346e+01
-8.895097472556305718e+01
-1.254972286794554748e+02
-1.367524124886743380e+02
-1.252709937949110355e+02
-9.082188728838156067e+01
-4.256653908742961079e+01
-1.003072937559069544e+01
1.208934760862973690e+00
-1.228817525537536426e+01
-4.574817237625288158e+01
-9.200646918761117377e+01
-1.285371753721730386e+02
-1.387666469477380247e+02
-1.242591596544050674e+02
-8.879357242631992619e+01
-4.553761267341065633e+01
-1.201727921469787930e+01
2.196748411993873162e+00
-1.232634919863444622e+01
-4.980274169759347558e+01
-9.206156297853358694e+01
-1.325767073515541199e+02
-1.397804610623340409e+02
-1.242469100957753767e+02
-8.876485574293050718e+01
-4.850830150601218804e+01
-1.100345831370696459e+01
3.184927202839695326e+00
-1.436415304505293733e+01
